timestamp,ecg_mv
1756047316.474924,0.003846285897396771
1756047316.4769242,-0.0717973367514064
1756047316.478924,-0.07307943205053866
1756047316.4809241,-0.07436152734967091
1756047316.482924,-0.07436152734967091
1756047316.484924,-0.07564362264880317
1756047316.4869242,-0.07692571794793543
1756047316.488924,-0.07820781324706769
1756047316.4909241,-0.07820781324706769
1756047316.492924,-0.07948990854619993
1756047316.494924,-0.07948990854619993
1756047316.4969242,-0.07948990854619993
1756047316.498924,-0.07820781324706769
1756047316.500924,-0.07692571794793543
1756047316.5029242,-0.07436152734967091
1756047316.504924,-0.0717973367514064
1756047316.5069242,-0.06795105085400963
1756047316.508924,-0.06538686025574511
1756047316.510924,-0.0628226696574806
1756047316.5129242,-0.06154057435834834
1756047316.514924,-0.06154057435834834
1756047316.5169241,-0.06154057435834834
1756047316.518924,-0.0628226696574806
1756047316.520924,-0.06410476495661285
1756047316.5229242,-0.06538686025574511
1756047316.524924,-0.06666895555487737
1756047316.5269241,-0.06666895555487737
1756047316.528924,-0.06795105085400963
1756047316.530924,-0.06666895555487737
1756047316.5329242,-0.06666895555487737
1756047316.534924,-0.06538686025574511
1756047316.5369241,-0.06538686025574511
1756047316.538924,-0.06410476495661285
1756047316.540924,-0.06410476495661285
1756047316.5429242,-0.06410476495661285
1756047316.544924,-0.06410476495661285
1756047316.546924,-0.06410476495661285
1756047316.548924,-0.06538686025574511
1756047316.550924,-0.06795105085400963
1756047316.5529242,-0.07051524145227414
1756047316.554924,-0.07307943205053866
1756047316.556924,-0.07692571794793543
1756047316.5589242,-0.08077200384533219
1756047316.560924,-0.08590038504186122
1756047316.5629241,-0.09102876623839025
1756047316.564924,-0.09615714743491928
1756047316.566924,-0.10128552863144831
1756047316.5689242,-0.1076960051271096
1756047316.570924,-0.11538857692190313
1756047316.5729241,-0.12308114871669668
1756047316.574924,-0.13077372051149022
1756047316.576924,-0.13846629230628377
1756047316.5789242,-0.1461588641010773
1756047316.580924,-0.15513353119500312
1756047316.5829241,-0.16282610298979663
1756047316.584924,-0.17180077008372244
1756047316.586924,-0.17821124657938373
1756047316.5889242,-0.184621723075045
1756047316.590924,-0.1884680089724418
1756047316.592924,-0.19231429486983856
1756047316.594924,-0.19487848546810307
1756047316.596924,-0.19872477136549985
1756047316.5989242,-0.20128896196376436
1756047316.600924,-0.20385315256202888
1756047316.602924,-0.20513524786116114
1756047316.6049242,-0.2064173431602934
1756047316.606924,-0.2064173431602934
1756047316.6089242,-0.20769943845942565
1756047316.610924,-0.2064173431602934
1756047316.612924,-0.20513524786116114
1756047316.6149242,-0.19872477136549985
1756047316.616924,-0.19359639016897082
1756047316.6189241,-0.184621723075045
1756047316.620924,-0.17692915128025147
1756047316.622924,-0.16923657948545792
1756047316.6249242,-0.16282610298979663
1756047316.626924,-0.16154400769066438
1756047316.6289241,-0.16026191239153212
1756047316.630924,-0.16539029358806115
1756047316.632924,-0.17051867478459018
1756047316.6349242,-0.17949334187851598
1756047316.636924,-0.1884680089724418
1756047316.6389241,-0.1974426760663676
1756047316.640924,-0.2064173431602934
1756047316.642924,-0.2089815337585579
1756047316.6449242,-0.21154572435682242
1756047316.646924,-0.1974426760663676
1756047316.648924,-0.184621723075045
1756047316.6509242,-0.15641562649413537
1756047316.652924,-0.12949162521235796
1756047316.6549242,-0.08718248034099348
1756047316.656924,-0.04615543076876125
1756047316.658924,0.0064104764956612855
1756047316.6609242,0.05897638376008382
1756047316.662924,0.11410648162277087
1756047316.6649241,0.17051867478459018
1756047316.666924,0.2205203914507482
1756047316.668924,0.27052210811690625
1756047316.6709242,0.30642077649260946
1756047316.672924,0.3423194448683126
1756047316.6749241,0.35898668375703197
1756047316.676924,0.3769360179448836
1756047316.678924,0.37821811324401583
1756047316.6809242,0.38078230384228035
1756047316.682924,0.364115064953561
1756047316.6849241,0.3487299213639739
1756047316.686924,0.32949849187699004
1756047316.688924,0.31026706239000623
1756047316.6909242,0.28847144230475785
1756047316.692924,0.2666758222195095
1756047316.694924,0.24231601153599658
1756047316.696924,0.21923829615161597
1756047316.698924,0.19231429486983856
1756047316.7009242,0.1666723888871934
1756047316.702924,0.13590210170801925
1756047316.704924,0.10641390982797734
1756047316.7069242,0.07564362264880317
1756047316.708924,0.044873335469628996
1756047316.7109241,0.015385143589587084
1756047316.712924,-0.014103048290454827
1756047316.714924,-0.039744954273099965
1756047316.7169242,-0.06538686025574511
1756047316.718924,-0.08590038504186122
1756047316.7209241,-0.1076960051271096
1756047316.722924,-0.12308114871669668
1756047316.724924,-0.13846629230628377
1756047316.7269242,-0.14872305469934183
1756047316.728924,-0.16026191239153212
1756047316.7309241,-0.16795448418632566
1756047316.732924,-0.1756470559811192
1756047316.734924,-0.18077543717764824
1756047316.7369242,-0.18590381837417727
1756047316.738924,-0.18718591367330953
1756047316.7409241,-0.18975010427157404
1756047316.742924,-0.18975010427157404
1756047316.744924,-0.18975010427157404
1756047316.7469242,-0.18718591367330953
1756047316.748924,-0.184621723075045
1756047316.750924,-0.18077543717764824
1756047316.7529242,-0.17821124657938373
1756047316.754924,-0.17436496068198695
1756047316.7569242,-0.17051867478459018
1756047316.758924,-0.16539029358806115
1756047316.760924,-0.16154400769066438
1756047316.7629242,-0.1576977217932676
1756047316.764924,-0.15513353119500312
1756047316.7669241,-0.1525693405967386
1756047316.768924,-0.15000514999847409
1756047316.770924,-0.14872305469934183
1756047316.7729242,-0.14872305469934183
1756047316.774924,-0.14872305469934183
1756047316.7769241,-0.15000514999847409
1756047316.778924,-0.1525693405967386
1756047316.780924,-0.15513353119500312
1756047316.7829242,-0.15897981709239986
1756047316.784924,-0.16282610298979663
1756047316.7869241,-0.1666723888871934
1756047316.788924,-0.17051867478459018
1756047316.790924,-0.17180077008372244
1756047316.7929242,-0.17436496068198695
1756047316.794924,-0.1730828653828547
1756047316.796924,-0.17180077008372244
1756047316.798924,-0.16795448418632566
1756047316.800924,-0.1641081982889289
1756047316.8029242,-0.15897981709239986
1756047316.804924,-0.15385143589587086
1756047316.806924,-0.14744095940020957
1756047316.8089242,-0.14231257820368054
1756047316.810924,-0.1371841970071515
1756047316.8129241,-0.13333791110975474
1756047316.814924,-0.12949162521235796
1756047316.816924,-0.12692743461409345
1756047316.8189242,-0.1256453393149612
1756047316.820924,-0.12436324401582893
1756047316.8229241,-0.12436324401582893
1756047316.824924,-0.12436324401582893
1756047316.826924,-0.12436324401582893
1756047316.8289242,-0.1256453393149612
1756047316.830924,-0.1256453393149612
1756047316.8329241,-0.12692743461409345
1756047316.834924,-0.1256453393149612
1756047316.836924,-0.1256453393149612
1756047316.8389242,-0.12308114871669668
1756047316.840924,-0.12051695811843216
1756047316.842924,-0.11410648162277087
1756047316.844924,-0.1076960051271096
1756047316.846924,-0.0987213380331838
1756047316.8489242,-0.08974667093925799
1756047316.850924,-0.07692571794793543
1756047316.852924,-0.06538686025574511
1756047316.8549242,-0.051283811965290284
1756047316.856924,-0.038462858973967715
1756047316.8589242,-0.025641905982645142
1756047316.860924,-0.014103048290454827
1756047316.862924,-0.005128381196529028
1756047316.8649242,0.003846285897396771
1756047316.866924,0.011538857692190313
1756047316.8689241,0.019231429486983857
1756047316.870924,0.0269240012817774
1756047316.872924,0.03461657307657094
1756047316.8749242,0.04230914487136448
1756047316.876924,0.050001716666158026
1756047316.8789241,0.057694288460951565
1756047316.880924,0.06538686025574511
1756047316.882924,0.0717973367514064
1756047316.8849242,0.07948990854619993
1756047316.886924,0.0833361944435967
1756047316.8889241,0.08718248034099348
1756047316.890924,0.08590038504186122
1756047316.892924,0.08461828974272896
1756047316.8949242,0.07948990854619993
1756047316.896924,0.07436152734967091
1756047316.898924,0.06666895555487737
1756047316.9009242,0.05897638376008382
1756047316.902924,0.05256590726442254
1756047316.9049242,0.04615543076876125
1756047316.906924,0.04102704957223222
1756047316.908924,0.0358986683757032
1756047316.9109242,0.03077028717917417
1756047316.912924,0.0269240012817774
1756047316.9149241,0.02179562008524837
1756047316.916924,0.016667238888719342
1756047316.918924,0.010256762393058056
1756047316.9209242,0.005128381196529028
1756047316.922924,0.0
1756047316.9249241,-0.0064104764956612855
1756047316.926924,-0.010256762393058056
1756047316.928924,-0.015385143589587084
1756047316.9309242,-0.019231429486983857
1756047316.932924,-0.023077715384380627
1756047316.9349241,-0.024359810683512884
1756047316.936924,-0.025641905982645142
1756047316.938924,-0.0269240012817774
1756047316.9409242,-0.028206096580909654
1756047316.942924,-0.03077028717917417
1756047316.944924,-0.03461657307657094
1756047316.946924,-0.039744954273099965
1756047316.948924,-0.044873335469628996
1756047316.9509242,-0.05256590726442254
1756047316.952924,-0.06025847905921608
1756047316.954924,-0.06923314615314188
1756047316.9569242,-0.07820781324706769
1756047316.958924,-0.08718248034099348
1756047316.9609241,-0.09615714743491928
1756047316.962924,-0.10384971922971283
1756047316.964924,-0.11154229102450636
1756047316.9669242,-0.11795276752016765
1756047316.968924,-0.12436324401582893
1756047316.9709241,-0.12949162521235796
1756047316.972924,-0.13590210170801925
1756047316.974924,-0.13974838760541602
1756047316.9769242,-0.14487676880194506
1756047316.978924,-0.14872305469934183
1756047316.9809241,-0.1525693405967386
1756047316.982924,-0.15513353119500312
1756047316.984924,-0.15897981709239986
1756047316.9869242,-0.16026191239153212
1756047316.988924,-0.16282610298979663
1756047316.9909241,-0.16154400769066438
1756047316.992924,-0.16154400769066438
1756047316.994924,-0.15897981709239986
1756047316.9969242,-0.15641562649413537
1756047316.998924,-0.15128724529760634
1756047317.000924,-0.1461588641010773
1756047317.0029242,-0.13974838760541602
1756047317.004924,-0.13333791110975474
1756047317.0069242,-0.1256453393149612
1756047317.008924,-0.11795276752016765
1756047317.010924,-0.11154229102450636
1756047317.0129242,-0.10513181452884508
1756047317.014924,-0.10000343333231605
1756047317.0169241,-0.09615714743491928
1756047317.018924,-0.09487505213578702
1756047317.020924,-0.09487505213578702
1756047317.0229242,-0.09615714743491928
1756047317.024924,-0.0987213380331838
1756047317.0269241,-0.10128552863144831
1756047317.028924,-0.10513181452884508
1756047317.030924,-0.10641390982797734
1756047317.0329242,-0.10897810042624186
1756047317.034924,-0.10897810042624186
1756047317.0369241,-0.10897810042624186
1756047317.038924,-0.1076960051271096
1756047317.040924,-0.10641390982797734
1756047317.0429242,-0.10384971922971283
1756047317.044924,-0.10128552863144831
1756047317.046924,-0.10000343333231605
1756047317.048924,-0.0987213380331838
1756047317.050924,-0.09743924273405154
1756047317.0529242,-0.09743924273405154
1756047317.054924,-0.09743924273405154
1756047317.056924,-0.0987213380331838
1756047317.0589242,-0.09743924273405154
1756047317.060924,-0.09743924273405154
1756047317.0629241,-0.09487505213578702
1756047317.064924,-0.09359295683665476
1756047317.066924,-0.08974667093925799
1756047317.0689242,-0.08718248034099348
1756047317.070924,-0.08205409914446445
1756047317.0729241,-0.07820781324706769
1756047317.074924,-0.07436152734967091
1756047317.076924,-0.0717973367514064
1756047317.0789242,-0.07051524145227414
1756047317.080924,-0.07051524145227414
1756047317.0829241,-0.06923314615314188
1756047317.084924,-0.06923314615314188
1756047317.086924,-0.06795105085400963
1756047317.0889242,-0.06795105085400963
1756047317.090924,-0.06410476495661285
1756047317.092924,-0.06154057435834834
1756047317.094924,-0.05513009786268705
1756047317.096924,-0.04871962136702577
1756047317.0989242,-0.039744954273099965
1756047317.100924,-0.03077028717917417
1756047317.102924,-0.02179562008524837
1756047317.1049242,-0.014103048290454827
1756047317.106924,-0.007692571794793542
1756047317.1089242,-0.001282095299132257
1756047317.110924,0.002564190598264514
1756047317.112924,0.0064104764956612855
1756047317.1149242,0.0089746670939258
1756047317.116924,0.011538857692190313
1756047317.1189241,0.012820952991322571
1756047317.120924,0.015385143589587084
1756047317.122924,0.016667238888719342
1756047317.1249242,0.0179493341878516
1756047317.126924,0.016667238888719342
1756047317.1289241,0.015385143589587084
1756047317.130924,0.011538857692190313
1756047317.132924,0.0089746670939258
1756047317.1349242,0.003846285897396771
1756047317.136924,-0.001282095299132257
1756047317.1389241,-0.0064104764956612855
1756047317.140924,-0.012820952991322571
1756047317.142924,-0.016667238888719342
1756047317.1449242,-0.02179562008524837
1756047317.146924,-0.023077715384380627
1756047317.148924,-0.025641905982645142
1756047317.1509242,-0.024359810683512884
1756047317.152924,-0.024359810683512884
1756047317.1549242,-0.02179562008524837
1756047317.156924,-0.02051352478611611
1756047317.158924,-0.0179493341878516
1756047317.1609242,-0.015385143589587084
1756047317.162924,-0.012820952991322571
1756047317.1649241,-0.011538857692190313
1756047317.166924,-0.010256762393058056
1756047317.168924,-0.0089746670939258
1756047317.1709242,-0.0064104764956612855
1756047317.172924,-0.005128381196529028
1756047317.1749241,-0.002564190598264514
1756047317.176924,0.0
1756047317.178924,0.001282095299132257
1756047317.1809242,0.003846285897396771
1756047317.182924,0.003846285897396771
1756047317.1849241,0.003846285897396771
1756047317.186924,0.002564190598264514
1756047317.188924,0.002564190598264514
1756047317.1909242,0.001282095299132257
1756047317.192924,0.0
1756047317.194924,-0.001282095299132257
1756047317.196924,-0.002564190598264514
1756047317.198924,-0.001282095299132257
1756047317.2009242,-0.001282095299132257
1756047317.202924,0.0
1756047317.204924,0.0
1756047317.2069242,-0.001282095299132257
1756047317.208924,-0.002564190598264514
1756047317.2109241,-0.005128381196529028
1756047317.212924,-0.0089746670939258
1756047317.214924,-0.012820952991322571
1756047317.2169242,-0.0179493341878516
1756047317.218924,-0.02179562008524837
1756047317.2209241,-0.025641905982645142
1756047317.222924,-0.0269240012817774
1756047317.224924,-0.02948819188004191
1756047317.2269242,-0.0269240012817774
1756047317.228924,-0.024359810683512884
1756047317.2309241,-0.0179493341878516
1756047317.232924,-0.012820952991322571
1756047317.234924,-0.0064104764956612855
1756047317.2369242,0.0
1756047317.238924,0.0064104764956612855
1756047317.2409241,0.014103048290454827
1756047317.242924,0.019231429486983857
1756047317.244924,0.024359810683512884
1756047317.2469242,0.0269240012817774
1756047317.248924,0.02948819188004191
1756047317.250924,0.02948819188004191
1756047317.2529242,0.02948819188004191
1756047317.254924,0.028206096580909654
1756047317.2569242,0.0269240012817774
1756047317.258924,0.024359810683512884
1756047317.260924,0.023077715384380627
1756047317.2629242,0.02179562008524837
1756047317.264924,0.02179562008524837
1756047317.2669241,0.023077715384380627
1756047317.268924,0.025641905982645142
1756047317.270924,0.02948819188004191
1756047317.2729242,0.033334477777438684
1756047317.274924,0.03718076367483546
1756047317.2769241,0.04102704957223222
1756047317.278924,0.044873335469628996
1756047317.280924,0.04871962136702577
1756047317.2829242,0.050001716666158026
1756047317.284924,0.051283811965290284
1756047317.2869241,0.051283811965290284
1756047317.288924,0.05256590726442254
1756047317.290924,0.0538480025635548
1756047317.2929242,0.05513009786268705
1756047317.294924,0.057694288460951565
1756047317.296924,0.06025847905921608
1756047317.298924,0.06410476495661285
1756047317.300924,0.06923314615314188
1756047317.3029242,0.07307943205053866
1756047317.304924,0.07820781324706769
1756047317.306924,0.08077200384533219
1756047317.3089242,0.0833361944435967
1756047317.310924,0.08205409914446445
1756047317.3129241,0.08205409914446445
1756047317.314924,0.07948990854619993
1756047317.316924,0.07692571794793543
1756047317.3189242,0.07051524145227414
1756047317.320924,0.06538686025574511
1756047317.3229241,0.05897638376008382
1756047317.324924,0.0538480025635548
1756047317.326924,0.04743752606789351
1756047317.3289242,0.04102704957223222
1756047317.330924,0.033334477777438684
1756047317.3329241,0.0269240012817774
1756047317.334924,0.0179493341878516
1756047317.336924,0.010256762393058056
1756047317.3389242,0.001282095299132257
1756047317.340924,-0.0064104764956612855
1756047317.342924,-0.012820952991322571
1756047317.344924,-0.02051352478611611
1756047317.346924,-0.025641905982645142
1756047317.3489242,-0.032052382478306427
1756047317.350924,-0.033334477777438684
1756047317.352924,-0.0358986683757032
1756047317.3549242,-0.03461657307657094
1756047317.356924,-0.033334477777438684
1756047317.3589242,-0.02948819188004191
1756047317.360924,-0.0269240012817774
1756047317.362924,-0.023077715384380627
1756047317.3649242,-0.019231429486983857
1756047317.366924,-0.016667238888719342
1756047317.3689241,-0.015385143589587084
1756047317.370924,-0.014103048290454827
1756047317.372924,-0.014103048290454827
1756047317.3749242,-0.016667238888719342
1756047317.376924,-0.02051352478611611
1756047317.3789241,-0.024359810683512884
1756047317.380924,-0.028206096580909654
1756047317.382924,-0.033334477777438684
1756047317.3849242,-0.038462858973967715
1756047317.386924,-0.04359124017049674
1756047317.3889241,-0.04871962136702577
1756047317.390924,-0.05256590726442254
1756047317.392924,-0.057694288460951565
1756047317.3949242,-0.06154057435834834
1756047317.396924,-0.06666895555487737
1756047317.398924,-0.0717973367514064
1756047317.4009242,-0.07820781324706769
1756047317.402924,-0.0833361944435967
1756047317.4049242,-0.08846457564012573
1756047317.406924,-0.09102876623839025
1756047317.408924,-0.09487505213578702
1756047317.4109242,-0.0923108615375225
1756047317.412924,-0.08974667093925799
1756047317.4149241,-0.07692571794793543
1756047317.416924,-0.06538686025574511
1756047317.418924,-0.039744954273099965
1756047317.4209242,-0.014103048290454827
1756047317.422924,0.025641905982645142
1756047317.4249241,0.06538686025574511
1756047317.426924,0.11795276752016765
1756047317.428924,0.17051867478459018
1756047317.4309242,0.22821296324554174
1756047317.432924,0.28590725170649334
1756047317.4349241,0.33847315897091584
1756047317.436924,0.3910390662353384
1756047317.438924,0.4282198299101739
1756047317.4409242,0.46668268888414155
1756047317.442924,0.4859141183711254
1756047317.444924,0.5051455478581093
1756047317.446924,0.5077097384563738
1756047317.448924,0.5115560243537706
1756047317.4509242,0.5000171666615802
1756047317.452924,0.4897604042685222
1756047317.454924,0.47309316537980284
1756047317.4569242,0.4564259264910835
1756047317.458924,0.43463030640583517
1756047317.4609241,0.41411678161971904
1756047317.462924,0.3884748756370739
1756047317.464924,0.36283296965442874
1756047317.4669242,0.3333447777743868
1756047317.468924,0.30385658589434494
1756047317.4709241,0.27052210811690625
1756047317.472924,0.23718763033946755
1756047317.474924,0.20385315256202888
1756047317.4769242,0.17051867478459018
1756047317.478924,0.13974838760541602
1756047317.4809241,0.10897810042624186
1756047317.482924,0.08461828974272896
1756047317.484924,0.06025847905921608
1756047317.4869242,0.04230914487136448
1756047317.488924,0.025641905982645142
1756047317.4909241,0.014103048290454827
1756047317.492924,0.003846285897396771
1756047317.494924,-0.001282095299132257
1756047317.4969242,-0.0064104764956612855
1756047317.498924,-0.0089746670939258
1756047317.500924,-0.011538857692190313
1756047317.5029242,-0.012820952991322571
1756047317.504924,-0.015385143589587084
1756047317.5069242,-0.0179493341878516
1756047317.508924,-0.02179562008524837
1756047317.510924,-0.025641905982645142
1756047317.5129242,-0.02948819188004191
1756047317.514924,-0.033334477777438684
1756047317.5169241,-0.038462858973967715
1756047317.518924,-0.04102704957223222
1756047317.520924,-0.044873335469628996
1756047317.5229242,-0.044873335469628996
1756047317.524924,-0.04615543076876125
1756047317.5269241,-0.04102704957223222
1756047317.528924,-0.03718076367483546
1756047317.530924,-0.03077028717917417
1756047317.5329242,-0.024359810683512884
1756047317.534924,-0.016667238888719342
1756047317.5369241,-0.0089746670939258
1756047317.538924,-0.002564190598264514
1756047317.540924,0.003846285897396771
1756047317.5429242,0.0064104764956612855
1756047317.544924,0.010256762393058056
1756047317.546924,0.0089746670939258
1756047317.548924,0.0089746670939258
1756047317.550924,0.005128381196529028
1756047317.5529242,0.001282095299132257
1756047317.554924,-0.002564190598264514
1756047317.556924,-0.0064104764956612855
1756047317.5589242,-0.0089746670939258
1756047317.560924,-0.012820952991322571
1756047317.5629241,-0.011538857692190313
1756047317.564924,-0.011538857692190313
1756047317.566924,-0.007692571794793542
1756047317.5689242,-0.005128381196529028
1756047317.570924,0.0
1756047317.5729241,0.005128381196529028
1756047317.574924,0.010256762393058056
1756047317.576924,0.016667238888719342
1756047317.5789242,0.02179562008524837
1756047317.580924,0.028206096580909654
1756047317.5829241,0.032052382478306427
1756047317.584924,0.03718076367483546
1756047317.586924,0.04102704957223222
1756047317.5889242,0.044873335469628996
1756047317.590924,0.04743752606789351
1756047317.592924,0.050001716666158026
1756047317.594924,0.051283811965290284
1756047317.596924,0.0538480025635548
1756047317.5989242,0.0538480025635548
1756047317.600924,0.05513009786268705
1756047317.602924,0.05641219316181931
1756047317.6049242,0.057694288460951565
1756047317.606924,0.05897638376008382
1756047317.6089242,0.06025847905921608
1756047317.610924,0.06154057435834834
1756047317.612924,0.06410476495661285
1756047317.6149242,0.06666895555487737
1756047317.616924,0.07051524145227414
1756047317.6189241,0.07436152734967091
1756047317.620924,0.07948990854619993
1756047317.622924,0.08461828974272896
1756047317.6249242,0.08974667093925799
1756047317.626924,0.09359295683665476
1756047317.6289241,0.0987213380331838
1756047317.630924,0.10128552863144831
1756047317.632924,0.10513181452884508
1756047317.6349242,0.10641390982797734
1756047317.636924,0.1076960051271096
1756047317.6389241,0.1076960051271096
1756047317.640924,0.1076960051271096
1756047317.642924,0.10641390982797734
1756047317.6449242,0.10513181452884508
1756047317.646924,0.10384971922971283
1756047317.648924,0.10256762393058057
1756047317.6509242,0.10256762393058057
1756047317.652924,0.10256762393058057
1756047317.6549242,0.10256762393058057
1756047317.656924,0.10256762393058057
1756047317.658924,0.10256762393058057
1756047317.6609242,0.10256762393058057
1756047317.662924,0.10384971922971283
1756047317.6649241,0.10513181452884508
1756047317.666924,0.10641390982797734
1756047317.668924,0.10897810042624186
1756047317.6709242,0.11154229102450636
1756047317.672924,0.11410648162277087
1756047317.6749241,0.11538857692190313
1756047317.676924,0.11667067222103539
1756047317.678924,0.11410648162277087
1756047317.6809242,0.11282438632363861
1756047317.682924,0.1076960051271096
1756047317.6849241,0.10384971922971283
1756047317.686924,0.09615714743491928
1756047317.688924,0.08974667093925799
1756047317.6909242,0.0833361944435967
1756047317.692924,0.07692571794793543
1756047317.694924,0.0717973367514064
1756047317.696924,0.06795105085400963
1756047317.698924,0.06666895555487737
1756047317.7009242,0.06538686025574511
1756047317.702924,0.06410476495661285
1756047317.704924,0.0628226696574806
1756047317.7069242,0.05897638376008382
1756047317.708924,0.05641219316181931
1756047317.7109241,0.04871962136702577
1756047317.712924,0.04102704957223222
1756047317.714924,0.02948819188004191
1756047317.7169242,0.0179493341878516
1756047317.718924,0.0064104764956612855
1756047317.7209241,-0.005128381196529028
1756047317.722924,-0.014103048290454827
1756047317.724924,-0.024359810683512884
1756047317.7269242,-0.02948819188004191
1756047317.728924,-0.0358986683757032
1756047317.7309241,-0.038462858973967715
1756047317.732924,-0.04102704957223222
1756047317.734924,-0.04230914487136448
1756047317.7369242,-0.04359124017049674
1756047317.738924,-0.044873335469628996
1756047317.7409241,-0.04615543076876125
1756047317.742924,-0.04743752606789351
1756047317.744924,-0.050001716666158026
1756047317.7469242,-0.051283811965290284
1756047317.748924,-0.0538480025635548
1756047317.750924,-0.05513009786268705
1756047317.7529242,-0.05641219316181931
1756047317.754924,-0.057694288460951565
1756047317.7569242,-0.05897638376008382
1756047317.758924,-0.06154057435834834
1756047317.760924,-0.06410476495661285
1756047317.7629242,-0.06923314615314188
1756047317.764924,-0.07436152734967091
1756047317.7669241,-0.07948990854619993
1756047317.768924,-0.08590038504186122
1756047317.770924,-0.09102876623839025
1756047317.7729242,-0.09615714743491928
1756047317.774924,-0.0987213380331838
1756047317.7769241,-0.10128552863144831
1756047317.778924,-0.10000343333231605
1756047317.780924,-0.10000343333231605
1756047317.7829242,-0.0987213380331838
1756047317.784924,-0.09743924273405154
1756047317.7869241,-0.09615714743491928
1756047317.788924,-0.09615714743491928
1756047317.790924,-0.09743924273405154
1756047317.7929242,-0.0987213380331838
1756047317.794924,-0.10000343333231605
1756047317.796924,-0.10256762393058057
1756047317.798924,-0.10384971922971283
1756047317.800924,-0.10641390982797734
1756047317.8029242,-0.1076960051271096
1756047317.804924,-0.10897810042624186
1756047317.806924,-0.10897810042624186
1756047317.8089242,-0.10897810042624186
1756047317.810924,-0.10897810042624186
1756047317.8129241,-0.10897810042624186
1756047317.814924,-0.10897810042624186
1756047317.816924,-0.1102601957253741
1756047317.8189242,-0.1102601957253741
1756047317.820924,-0.1102601957253741
1756047317.8229241,-0.10897810042624186
1756047317.824924,-0.10897810042624186
1756047317.826924,-0.1076960051271096
1756047317.8289242,-0.10641390982797734
1756047317.830924,-0.10384971922971283
1756047317.8329241,-0.10128552863144831
1756047317.834924,-0.10000343333231605
1756047317.836924,-0.0987213380331838
1756047317.8389242,-0.0987213380331838
1756047317.840924,-0.10000343333231605
1756047317.842924,-0.10128552863144831
1756047317.844924,-0.10256762393058057
1756047317.846924,-0.10513181452884508
1756047317.8489242,-0.1076960051271096
1756047317.850924,-0.1102601957253741
1756047317.852924,-0.11410648162277087
1756047317.8549242,-0.11667067222103539
1756047317.856924,-0.12051695811843216
1756047317.8589242,-0.12436324401582893
1756047317.860924,-0.12949162521235796
1756047317.862924,-0.134620006408887
1756047317.8649242,-0.13974838760541602
1756047317.866924,-0.14487676880194506
1756047317.8689241,-0.15000514999847409
1756047317.870924,-0.1525693405967386
1756047317.872924,-0.15641562649413537
1756047317.8749242,-0.15641562649413537
1756047317.876924,-0.1576977217932676
1756047317.8789241,-0.15385143589587086
1756047317.880924,-0.15000514999847409
1756047317.882924,-0.14487676880194506
1756047317.8849242,-0.13974838760541602
1756047317.886924,-0.134620006408887
1756047317.8889241,-0.13077372051149022
1756047317.890924,-0.1282095299132257
1756047317.892924,-0.1256453393149612
1756047317.8949242,-0.12436324401582893
1756047317.896924,-0.12436324401582893
1756047317.898924,-0.1256453393149612
1756047317.9009242,-0.1282095299132257
1756047317.902924,-0.13205581581062248
1756047317.9049242,-0.13590210170801925
1756047317.906924,-0.13974838760541602
1756047317.908924,-0.1435946735028128
1756047317.9109242,-0.14487676880194506
1756047317.912924,-0.14744095940020957
1756047317.9149241,-0.14872305469934183
1756047317.916924,-0.15000514999847409
1756047317.918924,-0.15000514999847409
1756047317.9209242,-0.15000514999847409
1756047317.922924,-0.14744095940020957
1756047317.9249241,-0.1461588641010773
1756047317.926924,-0.14487676880194506
1756047317.928924,-0.1435946735028128
1756047317.9309242,-0.14231257820368054
1756047317.932924,-0.14231257820368054
1756047317.9349241,-0.14231257820368054
1756047317.936924,-0.1435946735028128
1756047317.938924,-0.14487676880194506
1756047317.9409242,-0.14744095940020957
1756047317.942924,-0.15000514999847409
1756047317.944924,-0.15385143589587086
1756047317.946924,-0.15513353119500312
1756047317.948924,-0.1576977217932676
1756047317.9509242,-0.1576977217932676
1756047317.952924,-0.1576977217932676
1756047317.954924,-0.15385143589587086
1756047317.9569242,-0.15000514999847409
1756047317.958924,-0.1435946735028128
1756047317.9609241,-0.1371841970071515
1756047317.962924,-0.1282095299132257
1756047317.964924,-0.1192348628192999
1756047317.9669242,-0.1102601957253741
1756047317.968924,-0.10128552863144831
1756047317.9709241,-0.09102876623839025
1756047317.972924,-0.08077200384533219
1756047317.974924,-0.07051524145227414
1756047317.9769242,-0.06025847905921608
1756047317.978924,-0.051283811965290284
1756047317.9809241,-0.04230914487136448
1756047317.982924,-0.03461657307657094
1756047317.984924,-0.028206096580909654
1756047317.9869242,-0.023077715384380627
1756047317.988924,-0.0179493341878516
1756047317.9909241,-0.015385143589587084
1756047317.992924,-0.012820952991322571
1756047317.994924,-0.012820952991322571
1756047317.9969242,-0.014103048290454827
1756047317.998924,-0.016667238888719342
1756047318.000924,-0.019231429486983857
1756047318.0029242,-0.02179562008524837
1756047318.004924,-0.025641905982645142
1756047318.0069242,-0.02948819188004191
1756047318.008924,-0.033334477777438684
1756047318.010924,-0.0358986683757032
1756047318.0129242,-0.039744954273099965
1756047318.014924,-0.04230914487136448
1756047318.0169241,-0.04615543076876125
1756047318.018924,-0.04615543076876125
1756047318.020924,-0.04743752606789351
1756047318.0229242,-0.044873335469628996
1756047318.024924,-0.04230914487136448
1756047318.0269241,-0.03718076367483546
1756047318.028924,-0.033334477777438684
1756047318.030924,-0.025641905982645142
1756047318.0329242,-0.019231429486983857
1756047318.034924,-0.012820952991322571
1756047318.0369241,-0.0064104764956612855
1756047318.038924,-0.001282095299132257
1756047318.040924,0.002564190598264514
1756047318.0429242,0.005128381196529028
1756047318.044924,0.007692571794793542
1756047318.046924,0.007692571794793542
1756047318.048924,0.0089746670939258
1756047318.050924,0.0089746670939258
1756047318.0529242,0.010256762393058056
1756047318.054924,0.011538857692190313
1756047318.056924,0.012820952991322571
1756047318.0589242,0.016667238888719342
1756047318.060924,0.02051352478611611
1756047318.0629241,0.025641905982645142
1756047318.064924,0.03077028717917417
1756047318.066924,0.03718076367483546
1756047318.0689242,0.04359124017049674
1756047318.070924,0.04871962136702577
1756047318.0729241,0.0538480025635548
1756047318.074924,0.05641219316181931
1756047318.076924,0.05897638376008382
1756047318.0789242,0.05641219316181931
1756047318.080924,0.0538480025635548
1756047318.0829241,0.04615543076876125
1756047318.084924,0.039744954273099965
1756047318.086924,0.02948819188004191
1756047318.0889242,0.019231429486983857
1756047318.090924,0.0089746670939258
1756047318.092924,-0.001282095299132257
1756047318.094924,-0.010256762393058056
1756047318.096924,-0.019231429486983857
1756047318.0989242,-0.024359810683512884
1756047318.100924,-0.02948819188004191
1756047318.102924,-0.032052382478306427
1756047318.1049242,-0.0358986683757032
1756047318.106924,-0.03718076367483546
1756047318.1089242,-0.038462858973967715
1756047318.110924,-0.038462858973967715
1756047318.112924,-0.039744954273099965
1756047318.1149242,-0.04102704957223222
1756047318.116924,-0.04359124017049674
1756047318.1189241,-0.04359124017049674
1756047318.120924,-0.044873335469628996
1756047318.122924,-0.044873335469628996
1756047318.1249242,-0.044873335469628996
1756047318.126924,-0.04359124017049674
1756047318.1289241,-0.04230914487136448
1756047318.130924,-0.04102704957223222
1756047318.132924,-0.04102704957223222
1756047318.1349242,-0.04102704957223222
1756047318.136924,-0.04230914487136448
1756047318.1389241,-0.04615543076876125
1756047318.140924,-0.050001716666158026
1756047318.142924,-0.05513009786268705
1756047318.1449242,-0.06025847905921608
1756047318.146924,-0.06154057435834834
1756047318.148924,-0.06410476495661285
1756047318.1509242,-0.06154057435834834
1756047318.152924,-0.05897638376008382
1756047318.1549242,-0.051283811965290284
1756047318.156924,-0.04359124017049674
1756047318.158924,-0.032052382478306427
1756047318.1609242,-0.02051352478611611
1756047318.162924,-0.007692571794793542
1756047318.1649241,0.003846285897396771
1756047318.166924,0.012820952991322571
1756047318.168924,0.02179562008524837
1756047318.1709242,0.024359810683512884
1756047318.172924,0.0269240012817774
1756047318.1749241,0.0269240012817774
1756047318.176924,0.0269240012817774
1756047318.178924,0.025641905982645142
1756047318.1809242,0.025641905982645142
1756047318.182924,0.03461657307657094
1756047318.1849241,0.044873335469628996
1756047318.186924,0.06795105085400963
1756047318.188924,0.09102876623839025
1756047318.1909242,0.12949162521235796
1756047318.192924,0.16923657948545792
1756047318.194924,0.2205203914507482
1756047318.196924,0.27308629871517076
1756047318.198924,0.3269343012787255
1756047318.2009242,0.3820643991414126
1756047318.202924,0.4269377346110416
1756047318.204924,0.4718110700806706
1756047318.2069242,0.49745297606331573
1756047318.208924,0.5230948820459609
1756047318.2109241,0.5269411679433577
1756047318.212924,0.5320695491398867
1756047318.214924,0.5141202149520351
1756047318.2169242,0.4961708807641835
1756047318.218924,0.4705289747815383
1756047318.2209241,0.44616916409802543
1756047318.222924,0.42052725811538033
1756047318.224924,0.3948853521327352
1756047318.2269242,0.3730897320474868
1756047318.228924,0.3512941119622384
1756047318.2309241,0.33206268247525456
1756047318.232924,0.31411334828740295
1756047318.234924,0.2961640140995514
1756047318.2369242,0.2782146799116998
1756047318.238924,0.2564190598264514
1756047318.2409241,0.2359055350403353
1756047318.242924,0.21154572435682242
1756047318.244924,0.1884680089724418
1756047318.2469242,0.1641081982889289
1756047318.248924,0.13974838760541602
1756047318.250924,0.11795276752016765
1756047318.2529242,0.09743924273405154
1756047318.254924,0.08205409914446445
1756047318.2569242,0.06666895555487737
1756047318.258924,0.05641219316181931
1756047318.260924,0.04615543076876125
1756047318.2629242,0.039744954273099965
1756047318.264924,0.033334477777438684
1756047318.2669241,0.03077028717917417
1756047318.268924,0.028206096580909654
1756047318.270924,0.025641905982645142
1756047318.2729242,0.023077715384380627
1756047318.274924,0.02051352478611611
1756047318.2769241,0.0179493341878516
1756047318.278924,0.014103048290454827
1756047318.280924,0.010256762393058056
1756047318.2829242,0.005128381196529028
1756047318.284924,0.0
1756047318.2869241,-0.003846285897396771
1756047318.288924,-0.0089746670939258
1756047318.290924,-0.012820952991322571
1756047318.2929242,-0.016667238888719342
1756047318.294924,-0.0179493341878516
1756047318.296924,-0.02051352478611611
1756047318.298924,-0.02051352478611611
1756047318.300924,-0.02051352478611611
1756047318.3029242,-0.0179493341878516
1756047318.304924,-0.016667238888719342
1756047318.306924,-0.012820952991322571
1756047318.3089242,-0.010256762393058056
1756047318.310924,-0.007692571794793542
1756047318.3129241,-0.005128381196529028
1756047318.314924,-0.003846285897396771
1756047318.316924,-0.003846285897396771
1756047318.3189242,-0.005128381196529028
1756047318.320924,-0.0064104764956612855
1756047318.3229241,-0.007692571794793542
1756047318.324924,-0.0089746670939258
1756047318.326924,-0.010256762393058056
1756047318.3289242,-0.011538857692190313
1756047318.330924,-0.011538857692190313
1756047318.3329241,-0.012820952991322571
1756047318.334924,-0.010256762393058056
1756047318.336924,-0.0089746670939258
1756047318.3389242,-0.005128381196529028
1756047318.340924,-0.001282095299132257
1756047318.342924,0.002564190598264514
1756047318.344924,0.0064104764956612855
1756047318.346924,0.010256762393058056
1756047318.3489242,0.015385143589587084
1756047318.350924,0.0179493341878516
1756047318.352924,0.02051352478611611
1756047318.3549242,0.02051352478611611
1756047318.356924,0.02051352478611611
1756047318.3589242,0.0179493341878516
1756047318.360924,0.016667238888719342
1756047318.362924,0.014103048290454827
1756047318.3649242,0.012820952991322571
1756047318.366924,0.011538857692190313
1756047318.3689241,0.011538857692190313
1756047318.370924,0.010256762393058056
1756047318.372924,0.010256762393058056
1756047318.3749242,0.010256762393058056
1756047318.376924,0.011538857692190313
1756047318.3789241,0.010256762393058056
1756047318.380924,0.010256762393058056
1756047318.382924,0.0089746670939258
1756047318.3849242,0.007692571794793542
1756047318.386924,0.0064104764956612855
1756047318.3889241,0.0064104764956612855
1756047318.390924,0.007692571794793542
1756047318.392924,0.010256762393058056
1756047318.3949242,0.015385143589587084
1756047318.396924,0.02051352478611611
1756047318.398924,0.0269240012817774
1756047318.4009242,0.03461657307657094
1756047318.402924,0.04230914487136448
1756047318.4049242,0.051283811965290284
1756047318.406924,0.05897638376008382
1756047318.408924,0.06666895555487737
1756047318.4109242,0.0717973367514064
1756047318.412924,0.07692571794793543
1756047318.4149241,0.07948990854619993
1756047318.416924,0.08205409914446445
1756047318.418924,0.08077200384533219
1756047318.4209242,0.08077200384533219
1756047318.422924,0.07692571794793543
1756047318.4249241,0.07307943205053866
1756047318.426924,0.06666895555487737
1756047318.428924,0.06154057435834834
1756047318.4309242,0.05513009786268705
1756047318.432924,0.04871962136702577
1756047318.4349241,0.04230914487136448
1756047318.436924,0.0358986683757032
1756047318.438924,0.03077028717917417
1756047318.4409242,0.025641905982645142
1756047318.442924,0.023077715384380627
1756047318.444924,0.02051352478611611
1756047318.446924,0.019231429486983857
1756047318.448924,0.019231429486983857
1756047318.4509242,0.02051352478611611
1756047318.452924,0.023077715384380627
1756047318.454924,0.023077715384380627
1756047318.4569242,0.024359810683512884
1756047318.458924,0.023077715384380627
1756047318.4609241,0.02179562008524837
1756047318.462924,0.0179493341878516
1756047318.464924,0.014103048290454827
1756047318.4669242,0.007692571794793542
1756047318.468924,0.001282095299132257
1756047318.4709241,-0.003846285897396771
1756047318.472924,-0.010256762393058056
1756047318.474924,-0.015385143589587084
1756047318.4769242,-0.02051352478611611
1756047318.478924,-0.024359810683512884
1756047318.4809241,-0.028206096580909654
1756047318.482924,-0.032052382478306427
1756047318.484924,-0.0358986683757032
1756047318.4869242,-0.04102704957223222
1756047318.488924,-0.04743752606789351
1756047318.4909241,-0.05513009786268705
1756047318.492924,-0.06410476495661285
1756047318.494924,-0.07307943205053866
1756047318.4969242,-0.0833361944435967
1756047318.498924,-0.0923108615375225
1756047318.500924,-0.10256762393058057
1756047318.5029242,-0.10897810042624186
1756047318.504924,-0.11538857692190313
1756047318.5069242,-0.11795276752016765
1756047318.508924,-0.12179905341756442
1756047318.510924,-0.12179905341756442
1756047318.5129242,-0.12179905341756442
1756047318.514924,-0.12051695811843216
1756047318.5169241,-0.1192348628192999
1756047318.518924,-0.12051695811843216
1756047318.520924,-0.12179905341756442
1756047318.5229242,-0.12436324401582893
1756047318.524924,-0.1282095299132257
1756047318.5269241,-0.13205581581062248
1756047318.528924,-0.1371841970071515
1756047318.530924,-0.14103048290454828
1756047318.5329242,-0.14487676880194506
1756047318.534924,-0.1461588641010773
1756047318.5369241,-0.14744095940020957
1756047318.538924,-0.1461588641010773
1756047318.540924,-0.14487676880194506
1756047318.5429242,-0.14103048290454828
1756047318.544924,-0.13846629230628377
1756047318.546924,-0.13590210170801925
1756047318.548924,-0.13333791110975474
1756047318.550924,-0.13205581581062248
1756047318.5529242,-0.13205581581062248
1756047318.554924,-0.13205581581062248
1756047318.556924,-0.13205581581062248
1756047318.5589242,-0.13205581581062248
1756047318.560924,-0.13333791110975474
1756047318.5629241,-0.13333791110975474
1756047318.564924,-0.134620006408887
1756047318.566924,-0.134620006408887
1756047318.5689242,-0.134620006408887
1756047318.570924,-0.134620006408887
1756047318.5729241,-0.13590210170801925
1756047318.574924,-0.13590210170801925
1756047318.576924,-0.1371841970071515
1756047318.5789242,-0.13846629230628377
1756047318.580924,-0.13974838760541602
1756047318.5829241,-0.14103048290454828
1756047318.584924,-0.14231257820368054
1756047318.586924,-0.1435946735028128
1756047318.5889242,-0.14487676880194506
1756047318.590924,-0.14487676880194506
1756047318.592924,-0.1461588641010773
1756047318.594924,-0.1461588641010773
1756047318.596924,-0.1461588641010773
1756047318.5989242,-0.1461588641010773
1756047318.600924,-0.14744095940020957
1756047318.602924,-0.1461588641010773
1756047318.6049242,-0.14487676880194506
1756047318.606924,-0.14103048290454828
1756047318.6089242,-0.1371841970071515
1756047318.610924,-0.13077372051149022
1756047318.612924,-0.12436324401582893
1756047318.6149242,-0.11795276752016765
1756047318.616924,-0.11154229102450636
1756047318.6189241,-0.10641390982797734
1756047318.620924,-0.10128552863144831
1756047318.622924,-0.10000343333231605
1756047318.6249242,-0.10000343333231605
1756047318.626924,-0.10513181452884508
1756047318.6289241,-0.1102601957253741
1756047318.630924,-0.11667067222103539
1756047318.632924,-0.12436324401582893
1756047318.6349242,-0.13077372051149022
1756047318.636924,-0.13846629230628377
1756047318.6389241,-0.1435946735028128
1756047318.640924,-0.14872305469934183
1756047318.642924,-0.15000514999847409
1756047318.6449242,-0.1525693405967386
1756047318.646924,-0.1525693405967386
1756047318.648924,-0.15385143589587086
1756047318.6509242,-0.15385143589587086
1756047318.652924,-0.15385143589587086
1756047318.6549242,-0.15513353119500312
1756047318.656924,-0.15641562649413537
1756047318.658924,-0.15641562649413537
1756047318.6609242,-0.1576977217932676
1756047318.662924,-0.15641562649413537
1756047318.6649241,-0.15513353119500312
1756047318.666924,-0.15128724529760634
1756047318.668924,-0.14872305469934183
1756047318.6709242,-0.1435946735028128
1756047318.672924,-0.13846629230628377
1756047318.6749241,-0.13205581581062248
1756047318.676924,-0.12692743461409345
1756047318.678924,-0.12308114871669668
1756047318.6809242,-0.1192348628192999
1756047318.682924,-0.11795276752016765
1756047318.6849241,-0.11667067222103539
1756047318.686924,-0.11795276752016765
1756047318.688924,-0.1192348628192999
1756047318.6909242,-0.12051695811843216
1756047318.692924,-0.12308114871669668
1756047318.694924,-0.12436324401582893
1756047318.696924,-0.12692743461409345
1756047318.698924,-0.12692743461409345
1756047318.7009242,-0.1282095299132257
1756047318.702924,-0.12692743461409345
1756047318.704924,-0.12692743461409345
1756047318.7069242,-0.1256453393149612
1756047318.708924,-0.1256453393149612
1756047318.7109241,-0.12436324401582893
1756047318.712924,-0.12436324401582893
1756047318.714924,-0.1256453393149612
1756047318.7169242,-0.1282095299132257
1756047318.718924,-0.13077372051149022
1756047318.7209241,-0.134620006408887
1756047318.722924,-0.13846629230628377
1756047318.724924,-0.14231257820368054
1756047318.7269242,-0.14487676880194506
1756047318.728924,-0.14872305469934183
1756047318.7309241,-0.14872305469934183
1756047318.732924,-0.15000514999847409
1756047318.734924,-0.14872305469934183
1756047318.7369242,-0.14744095940020957
1756047318.738924,-0.1435946735028128
1756047318.7409241,-0.13974838760541602
1756047318.742924,-0.134620006408887
1756047318.744924,-0.13077372051149022
1756047318.7469242,-0.12692743461409345
1756047318.748924,-0.12436324401582893
1756047318.750924,-0.12308114871669668
1756047318.7529242,-0.12179905341756442
1756047318.754924,-0.12308114871669668
1756047318.7569242,-0.12436324401582893
1756047318.758924,-0.12692743461409345
1756047318.760924,-0.13077372051149022
1756047318.7629242,-0.13333791110975474
1756047318.764924,-0.1371841970071515
1756047318.7669241,-0.13846629230628377
1756047318.768924,-0.13974838760541602
1756047318.770924,-0.13974838760541602
1756047318.7729242,-0.14103048290454828
1756047318.774924,-0.13846629230628377
1756047318.7769241,-0.1371841970071515
1756047318.778924,-0.134620006408887
1756047318.780924,-0.13205581581062248
1756047318.7829242,-0.12949162521235796
1756047318.784924,-0.12692743461409345
1756047318.7869241,-0.12436324401582893
1756047318.788924,-0.12179905341756442
1756047318.790924,-0.1192348628192999
1756047318.7929242,-0.11667067222103539
1756047318.794924,-0.11410648162277087
1756047318.796924,-0.11154229102450636
1756047318.798924,-0.10897810042624186
1756047318.800924,-0.1076960051271096
1756047318.8029242,-0.10641390982797734
1756047318.804924,-0.10513181452884508
1756047318.806924,-0.10384971922971283
1756047318.8089242,-0.10384971922971283
1756047318.810924,-0.10256762393058057
1756047318.8129241,-0.10128552863144831
1756047318.814924,-0.0987213380331838
1756047318.816924,-0.09743924273405154
1756047318.8189242,-0.09359295683665476
1756047318.820924,-0.09102876623839025
1756047318.8229241,-0.08590038504186122
1756047318.824924,-0.08205409914446445
1756047318.826924,-0.07564362264880317
1756047318.8289242,-0.07051524145227414
1756047318.830924,-0.06538686025574511
1756047318.8329241,-0.06025847905921608
1756047318.834924,-0.05513009786268705
1756047318.836924,-0.050001716666158026
1756047318.8389242,-0.04743752606789351
1756047318.840924,-0.044873335469628996
1756047318.842924,-0.04359124017049674
1756047318.844924,-0.04359124017049674
1756047318.846924,-0.044873335469628996
1756047318.8489242,-0.04615543076876125
1756047318.850924,-0.050001716666158026
1756047318.852924,-0.0538480025635548
1756047318.8549242,-0.057694288460951565
1756047318.856924,-0.0628226696574806
1756047318.8589242,-0.06666895555487737
1756047318.860924,-0.0717973367514064
1756047318.862924,-0.07692571794793543
1756047318.8649242,-0.08205409914446445
1756047318.866924,-0.08590038504186122
1756047318.8689241,-0.08974667093925799
1756047318.870924,-0.09102876623839025
1756047318.872924,-0.09359295683665476
1756047318.8749242,-0.09359295683665476
1756047318.876924,-0.09359295683665476
1756047318.8789241,-0.09359295683665476
1756047318.880924,-0.09359295683665476
1756047318.882924,-0.09359295683665476
1756047318.8849242,-0.09487505213578702
1756047318.886924,-0.09487505213578702
1756047318.8889241,-0.09615714743491928
1756047318.890924,-0.09743924273405154
1756047318.892924,-0.0987213380331838
1756047318.8949242,-0.0987213380331838
1756047318.896924,-0.10000343333231605
1756047318.898924,-0.0987213380331838
1756047318.9009242,-0.09743924273405154
1756047318.902924,-0.09487505213578702
1756047318.9049242,-0.0923108615375225
1756047318.906924,-0.09102876623839025
1756047318.908924,-0.08974667093925799
1756047318.9109242,-0.08974667093925799
1756047318.912924,-0.08974667093925799
1756047318.9149241,-0.09102876623839025
1756047318.916924,-0.0923108615375225
1756047318.918924,-0.09359295683665476
1756047318.9209242,-0.09615714743491928
1756047318.922924,-0.09743924273405154
1756047318.9249241,-0.10000343333231605
1756047318.926924,-0.0987213380331838
1756047318.928924,-0.0987213380331838
1756047318.9309242,-0.09615714743491928
1756047318.932924,-0.09487505213578702
1756047318.9349241,-0.09359295683665476
1756047318.936924,-0.09359295683665476
1756047318.938924,-0.09359295683665476
1756047318.9409242,-0.09359295683665476
1756047318.942924,-0.09359295683665476
1756047318.944924,-0.09487505213578702
1756047318.946924,-0.08974667093925799
1756047318.948924,-0.08590038504186122
1756047318.9509242,-0.07307943205053866
1756047318.952924,-0.06154057435834834
1756047318.954924,-0.033334477777438684
1756047318.9569242,-0.0064104764956612855
1756047318.958924,0.0358986683757032
1756047318.9609241,0.07820781324706769
1756047318.962924,0.13333791110975474
1756047318.964924,0.18975010427157404
1756047318.9669242,0.2512906786299224
1756047318.968924,0.31411334828740295
1756047318.9709241,0.37180763674835454
1756047318.972924,0.4307840205084384
1756047318.974924,0.47565735597806735
1756047318.9769242,0.5205306914476964
1756047318.978924,0.5461725974303415
1756047318.9809241,0.5718145034129867
1756047318.982924,0.578224979908648
1756047318.984924,0.5859175517034415
1756047318.9869242,0.5795070752077802
1756047318.988924,0.5730965987121189
1756047318.9909241,0.5577114551225318
1756047318.992924,0.5423263115329447
1756047318.994924,0.5205306914476964
1756047318.9969242,0.5000171666615802
1756047318.998924,0.47565735597806735
1756047319.000924,0.45129754529455446
1756047319.0029242,0.42309144871364485
1756047319.004924,0.3948853521327352
1756047319.0069242,0.364115064953561
1756047319.008924,0.33462687307351907
1756047319.010924,0.3051386811934772
1756047319.0129242,0.2756504893134353
1756047319.014924,0.2512906786299224
1756047319.0169241,0.2269308679464095
1756047319.018924,0.21026362905769017
1756047319.020924,0.19487848546810307
1756047319.0229242,0.18590381837417727
1756047319.024924,0.17692915128025147
1756047319.0269241,0.17180077008372244
1756047319.028924,0.16795448418632566
1756047319.030924,0.16539029358806115
1756047319.0329242,0.16282610298979663
1756047319.034924,0.15897981709239986
1756047319.0369241,0.15641562649413537
1756047319.038924,0.15385143589587086
1756047319.040924,0.15128724529760634
1756047319.0429242,0.15000514999847409
1756047319.044924,0.14872305469934183
1756047319.046924,0.14872305469934183
1756047319.048924,0.15000514999847409
1756047319.050924,0.15000514999847409
1756047319.0529242,0.15128724529760634
1756047319.054924,0.15128724529760634
1756047319.056924,0.1525693405967386
1756047319.0589242,0.1525693405967386
1756047319.060924,0.15385143589587086
1756047319.0629241,0.1525693405967386
1756047319.064924,0.1525693405967386
1756047319.066924,0.15000514999847409
1756047319.0689242,0.14872305469934183
1756047319.070924,0.14744095940020957
1756047319.0729241,0.1461588641010773
1756047319.074924,0.14487676880194506
1756047319.076924,0.1435946735028128
1756047319.0789242,0.14231257820368054
1756047319.080924,0.14103048290454828
1756047319.0829241,0.13974838760541602
1756047319.084924,0.13846629230628377
1756047319.086924,0.1371841970071515
1756047319.0889242,0.1371841970071515
1756047319.090924,0.13590210170801925
1756047319.092924,0.134620006408887
1756047319.094924,0.13205581581062248
1756047319.096924,0.13077372051149022
1756047319.0989242,0.1282095299132257
1756047319.100924,0.12692743461409345
1756047319.102924,0.12436324401582893
1756047319.1049242,0.12308114871669668
1756047319.106924,0.12051695811843216
1756047319.1089242,0.11795276752016765
1756047319.110924,0.11667067222103539
1756047319.112924,0.11667067222103539
1756047319.1149242,0.11795276752016765
1756047319.116924,0.12051695811843216
1756047319.1189241,0.12436324401582893
1756047319.120924,0.1282095299132257
1756047319.122924,0.13333791110975474
1756047319.1249242,0.13846629230628377
1756047319.126924,0.14231257820368054
1756047319.1289241,0.14744095940020957
1756047319.130924,0.15000514999847409
1756047319.132924,0.15385143589587086
1756047319.1349242,0.15513353119500312
1756047319.136924,0.15641562649413537
1756047319.1389241,0.1576977217932676
1756047319.140924,0.15897981709239986
1756047319.142924,0.15897981709239986
1756047319.1449242,0.16026191239153212
1756047319.146924,0.16026191239153212
1756047319.148924,0.16154400769066438
1756047319.1509242,0.1641081982889289
1756047319.152924,0.1666723888871934
1756047319.1549242,0.16795448418632566
1756047319.156924,0.17051867478459018
1756047319.158924,0.17180077008372244
1756047319.1609242,0.17436496068198695
1756047319.162924,0.17436496068198695
1756047319.1649241,0.1756470559811192
1756047319.166924,0.1756470559811192
1756047319.168924,0.17692915128025147
1756047319.1709242,0.1756470559811192
1756047319.172924,0.1756470559811192
1756047319.1749241,0.17692915128025147
1756047319.176924,0.17821124657938373
1756047319.178924,0.17949334187851598
1756047319.1809242,0.1820575324767805
1756047319.182924,0.184621723075045
1756047319.1849241,0.18718591367330953
1756047319.186924,0.18975010427157404
1756047319.188924,0.19359639016897082
1756047319.1909242,0.1974426760663676
1756047319.192924,0.20128896196376436
1756047319.194924,0.20385315256202888
1756047319.196924,0.2064173431602934
1756047319.198924,0.2089815337585579
1756047319.2009242,0.21154572435682242
1756047319.202924,0.21282781965595468
1756047319.204924,0.21410991495508694
1756047319.2069242,0.21410991495508694
1756047319.208924,0.2153920102542192
1756047319.2109241,0.21282781965595468
1756047319.212924,0.21154572435682242
1756047319.214924,0.2089815337585579
1756047319.2169242,0.20769943845942565
1756047319.218924,0.20513524786116114
1756047319.2209241,0.20257105726289662
1756047319.222924,0.2000068666646321
1756047319.224924,0.1974426760663676
1756047319.2269242,0.19487848546810307
1756047319.228924,0.19231429486983856
1756047319.2309241,0.1884680089724418
1756047319.232924,0.184621723075045
1756047319.234924,0.17821124657938373
1756047319.2369242,0.17180077008372244
1756047319.238924,0.16282610298979663
1756047319.2409241,0.15513353119500312
1756047319.242924,0.14487676880194506
1756047319.244924,0.134620006408887
1756047319.2469242,0.12308114871669668
1756047319.248924,0.11282438632363861
1756047319.250924,0.10128552863144831
1756047319.2529242,0.09102876623839025
1756047319.254924,0.07948990854619993
1756047319.2569242,0.06795105085400963
1756047319.258924,0.057694288460951565
1756047319.260924,0.04743752606789351
1756047319.2629242,0.038462858973967715
1756047319.264924,0.02948819188004191
1756047319.2669241,0.02179562008524837
1756047319.268924,0.015385143589587084
1756047319.270924,0.011538857692190313
1756047319.2729242,0.0089746670939258
1756047319.274924,0.007692571794793542
1756047319.2769241,0.007692571794793542
1756047319.278924,0.007692571794793542
1756047319.280924,0.007692571794793542
1756047319.2829242,0.0064104764956612855
1756047319.284924,0.0064104764956612855
1756047319.2869241,0.003846285897396771
1756047319.288924,0.001282095299132257
1756047319.290924,-0.001282095299132257
1756047319.2929242,-0.005128381196529028
1756047319.294924,-0.0089746670939258
1756047319.296924,-0.012820952991322571
1756047319.298924,-0.014103048290454827
1756047319.300924,-0.016667238888719342
1756047319.3029242,-0.016667238888719342
1756047319.304924,-0.0179493341878516
1756047319.306924,-0.015385143589587084
1756047319.3089242,-0.014103048290454827
1756047319.310924,-0.012820952991322571
1756047319.3129241,-0.011538857692190313
1756047319.314924,-0.011538857692190313
1756047319.316924,-0.011538857692190313
1756047319.3189242,-0.012820952991322571
1756047319.320924,-0.015385143589587084
1756047319.3229241,-0.016667238888719342
1756047319.324924,-0.019231429486983857
1756047319.326924,-0.019231429486983857
1756047319.3289242,-0.02051352478611611
1756047319.330924,-0.02051352478611611
1756047319.3329241,-0.02179562008524837
1756047319.334924,-0.02179562008524837
1756047319.336924,-0.023077715384380627
1756047319.3389242,-0.024359810683512884
1756047319.340924,-0.025641905982645142
1756047319.342924,-0.028206096580909654
1756047319.344924,-0.032052382478306427
1756047319.346924,-0.0358986683757032
1756047319.3489242,-0.04102704957223222
1756047319.350924,-0.044873335469628996
1756047319.352924,-0.04871962136702577
1756047319.3549242,-0.051283811965290284
1756047319.356924,-0.0538480025635548
1756047319.3589242,-0.0538480025635548
1756047319.360924,-0.05513009786268705
1756047319.362924,-0.05256590726442254
1756047319.3649242,-0.050001716666158026
1756047319.366924,-0.04615543076876125
1756047319.3689241,-0.04230914487136448
1756047319.370924,-0.038462858973967715
1756047319.372924,-0.03461657307657094
1756047319.3749242,-0.032052382478306427
1756047319.376924,-0.02948819188004191
1756047319.3789241,-0.0269240012817774
1756047319.380924,-0.025641905982645142
1756047319.382924,-0.024359810683512884
1756047319.3849242,-0.023077715384380627
1756047319.386924,-0.02179562008524837
1756047319.3889241,-0.02179562008524837
1756047319.390924,-0.02179562008524837
1756047319.392924,-0.023077715384380627
1756047319.3949242,-0.025641905982645142
1756047319.396924,-0.02948819188004191
1756047319.398924,-0.033334477777438684
1756047319.4009242,-0.038462858973967715
1756047319.402924,-0.04359124017049674
1756047319.4049242,-0.050001716666158026
1756047319.406924,-0.05256590726442254
1756047319.408924,-0.05513009786268705
1756047319.4109242,-0.05513009786268705
1756047319.412924,-0.05641219316181931
1756047319.4149241,-0.05256590726442254
1756047319.416924,-0.050001716666158026
1756047319.418924,-0.04615543076876125
1756047319.4209242,-0.04359124017049674
1756047319.422924,-0.04230914487136448
1756047319.4249241,-0.04230914487136448
1756047319.426924,-0.04615543076876125
1756047319.428924,-0.051283811965290284
1756047319.4309242,-0.057694288460951565
1756047319.432924,-0.06410476495661285
1756047319.4349241,-0.07051524145227414
1756047319.436924,-0.07820781324706769
1756047319.438924,-0.0833361944435967
1756047319.4409242,-0.08846457564012573
1756047319.442924,-0.08974667093925799
1756047319.444924,-0.0923108615375225
1756047319.446924,-0.0923108615375225
1756047319.448924,-0.0923108615375225
1756047319.4509242,-0.09102876623839025
1756047319.452924,-0.09102876623839025
1756047319.454924,-0.08974667093925799
1756047319.4569242,-0.08974667093925799
1756047319.458924,-0.08846457564012573
1756047319.4609241,-0.08846457564012573
1756047319.462924,-0.08590038504186122
1756047319.464924,-0.0833361944435967
1756047319.4669242,-0.07948990854619993
1756047319.468924,-0.07564362264880317
1756047319.4709241,-0.07051524145227414
1756047319.472924,-0.06538686025574511
1756047319.474924,-0.06154057435834834
1756047319.4769242,-0.057694288460951565
1756047319.478924,-0.05641219316181931
1756047319.4809241,-0.05513009786268705
1756047319.482924,-0.05641219316181931
1756047319.484924,-0.05897638376008382
1756047319.4869242,-0.06410476495661285
1756047319.488924,-0.07051524145227414
1756047319.4909241,-0.07820781324706769
1756047319.492924,-0.08590038504186122
1756047319.494924,-0.09102876623839025
1756047319.4969242,-0.09743924273405154
1756047319.498924,-0.10256762393058057
1756047319.500924,-0.1076960051271096
1756047319.5029242,-0.11154229102450636
1756047319.504924,-0.11538857692190313
1756047319.5069242,-0.11795276752016765
1756047319.508924,-0.12179905341756442
1756047319.510924,-0.12308114871669668
1756047319.5129242,-0.1256453393149612
1756047319.514924,-0.1256453393149612
1756047319.5169241,-0.12692743461409345
1756047319.518924,-0.12436324401582893
1756047319.520924,-0.12308114871669668
1756047319.5229242,-0.11795276752016765
1756047319.524924,-0.11410648162277087
1756047319.5269241,-0.1076960051271096
1756047319.528924,-0.10256762393058057
1756047319.530924,-0.09743924273405154
1756047319.5329242,-0.0923108615375225
1756047319.534924,-0.08846457564012573
1756047319.5369241,-0.08590038504186122
1756047319.538924,-0.08590038504186122
1756047319.540924,-0.08590038504186122
1756047319.5429242,-0.08590038504186122
1756047319.544924,-0.08718248034099348
1756047319.546924,-0.08590038504186122
1756047319.548924,-0.08590038504186122
1756047319.550924,-0.08205409914446445
1756047319.5529242,-0.07948990854619993
1756047319.554924,-0.07307943205053866
1756047319.556924,-0.06666895555487737
1756047319.5589242,-0.06154057435834834
1756047319.560924,-0.05641219316181931
1756047319.5629241,-0.05513009786268705
1756047319.564924,-0.0538480025635548
1756047319.566924,-0.05641219316181931
1756047319.5689242,-0.06025847905921608
1756047319.570924,-0.06666895555487737
1756047319.5729241,-0.07436152734967091
1756047319.574924,-0.08077200384533219
1756047319.576924,-0.08846457564012573
1756047319.5789242,-0.0923108615375225
1756047319.580924,-0.09743924273405154
1756047319.5829241,-0.09743924273405154
1756047319.584924,-0.0987213380331838
1756047319.586924,-0.09487505213578702
1756047319.5889242,-0.0923108615375225
1756047319.590924,-0.08718248034099348
1756047319.592924,-0.0833361944435967
1756047319.594924,-0.07820781324706769
1756047319.596924,-0.07436152734967091
1756047319.5989242,-0.06923314615314188
1756047319.600924,-0.06538686025574511
1756047319.602924,-0.06025847905921608
1756047319.6049242,-0.05641219316181931
1756047319.606924,-0.050001716666158026
1756047319.6089242,-0.044873335469628996
1756047319.610924,-0.03718076367483546
1756047319.612924,-0.03077028717917417
1756047319.6149242,-0.023077715384380627
1756047319.616924,-0.016667238888719342
1756047319.6189241,-0.0089746670939258
1756047319.620924,-0.002564190598264514
1756047319.622924,0.001282095299132257
1756047319.6249242,0.0064104764956612855
1756047319.626924,0.0089746670939258
1756047319.6289241,0.011538857692190313
1756047319.630924,0.011538857692190313
1756047319.632924,0.012820952991322571
1756047319.6349242,0.010256762393058056
1756047319.636924,0.0089746670939258
1756047319.6389241,0.005128381196529028
1756047319.640924,0.002564190598264514
1756047319.642924,0.0
1756047319.6449242,-0.003846285897396771
1756047319.646924,-0.007692571794793542
1756047319.648924,-0.012820952991322571
1756047319.6509242,-0.0179493341878516
1756047319.652924,-0.023077715384380627
1756047319.6549242,-0.028206096580909654
1756047319.656924,-0.033334477777438684
1756047319.658924,-0.03718076367483546
1756047319.6609242,-0.04102704957223222
1756047319.662924,-0.04230914487136448
1756047319.6649241,-0.04359124017049674
1756047319.666924,-0.04230914487136448
1756047319.668924,-0.04230914487136448
1756047319.6709242,-0.039744954273099965
1756047319.672924,-0.038462858973967715
1756047319.6749241,-0.0358986683757032
1756047319.676924,-0.03461657307657094
1756047319.678924,-0.03077028717917417
1756047319.6809242,-0.028206096580909654
1756047319.682924,-0.024359810683512884
1756047319.6849241,-0.02179562008524837
1756047319.686924,-0.0179493341878516
1756047319.688924,-0.015385143589587084
1756047319.6909242,-0.011538857692190313
1756047319.692924,-0.007692571794793542
1756047319.694924,-0.003846285897396771
1756047319.696924,-0.001282095299132257
1756047319.698924,0.0
1756047319.7009242,0.0
1756047319.702924,0.0
1756047319.704924,0.0
1756047319.7069242,-0.001282095299132257
1756047319.708924,-0.002564190598264514
1756047319.7109241,-0.005128381196529028
1756047319.712924,-0.007692571794793542
1756047319.714924,-0.012820952991322571
1756047319.7169242,-0.0179493341878516
1756047319.718924,-0.025641905982645142
1756047319.7209241,-0.033334477777438684
1756047319.722924,-0.04359124017049674
1756047319.724924,-0.0538480025635548
1756047319.7269242,-0.0628226696574806
1756047319.728924,-0.0717973367514064
1756047319.7309241,-0.07307943205053866
1756047319.732924,-0.07436152734967091
1756047319.734924,-0.05641219316181931
1756047319.7369242,-0.039744954273099965
1756047319.738924,-0.003846285897396771
1756047319.7409241,0.032052382478306427
1756047319.742924,0.08590038504186122
1756047319.744924,0.14103048290454828
1756047319.7469242,0.20513524786116114
1756047319.748924,0.27052210811690625
1756047319.750924,0.3333447777743868
1756047319.7529242,0.3974495427309997
1756047319.754924,0.4474512593971577
1756047319.7569242,0.49745297606331573
1756047319.758924,0.5269411679433577
1756047319.760924,0.5564293598233996
1756047319.7629242,0.5654040269173254
1756047319.764924,0.5743786940112512
1756047319.7669241,0.5666861222164576
1756047319.768924,0.5589935504216641
1756047319.770924,0.5397621209346802
1756047319.7729242,0.5218127867468286
1756047319.774924,0.49745297606331573
1756047319.7769241,0.4743752606789351
1756047319.778924,0.4474512593971577
1756047319.780924,0.4218093534145126
1756047319.7829242,0.3910390662353384
1756047319.784924,0.3615508743552965
1756047319.7869241,0.32565220597959327
1756047319.788924,0.29103563290302237
1756047319.790924,0.25257277392905464
1756047319.7929242,0.21410991495508694
1756047319.794924,0.17692915128025147
1756047319.796924,0.13974838760541602
1756047319.798924,0.10897810042624186
1756047319.800924,0.07820781324706769
1756047319.8029242,0.05641219316181931
1756047319.804924,0.0358986683757032
1756047319.806924,0.025641905982645142
1756047319.8089242,0.015385143589587084
1756047319.810924,0.012820952991322571
1756047319.8129241,0.010256762393058056
1756047319.814924,0.010256762393058056
1756047319.816924,0.010256762393058056
1756047319.8189242,0.011538857692190313
1756047319.820924,0.012820952991322571
1756047319.8229241,0.011538857692190313
1756047319.824924,0.011538857692190313
1756047319.826924,0.010256762393058056
1756047319.8289242,0.0089746670939258
1756047319.830924,0.007692571794793542
1756047319.8329241,0.0064104764956612855
1756047319.834924,0.005128381196529028
1756047319.836924,0.003846285897396771
1756047319.8389242,0.002564190598264514
1756047319.840924,0.001282095299132257
1756047319.842924,-0.001282095299132257
1756047319.844924,-0.003846285897396771
1756047319.846924,-0.007692571794793542
1756047319.8489242,-0.011538857692190313
1756047319.850924,-0.014103048290454827
1756047319.852924,-0.0179493341878516
1756047319.8549242,-0.02051352478611611
1756047319.856924,-0.023077715384380627
1756047319.8589242,-0.023077715384380627
1756047319.860924,-0.023077715384380627
1756047319.862924,-0.02179562008524837
1756047319.8649242,-0.02051352478611611
1756047319.866924,-0.0179493341878516
1756047319.8689241,-0.016667238888719342
1756047319.870924,-0.015385143589587084
1756047319.872924,-0.015385143589587084
1756047319.8749242,-0.016667238888719342
1756047319.876924,-0.0179493341878516
1756047319.8789241,-0.02051352478611611
1756047319.880924,-0.023077715384380627
1756047319.882924,-0.0269240012817774
1756047319.8849242,-0.03077028717917417
1756047319.886924,-0.033334477777438684
1756047319.8889241,-0.03718076367483546
1756047319.890924,-0.03718076367483546
1756047319.892924,-0.038462858973967715
1756047319.8949242,-0.0358986683757032
1756047319.896924,-0.033334477777438684
1756047319.898924,-0.028206096580909654
1756047319.9009242,-0.024359810683512884
1756047319.902924,-0.019231429486983857
1756047319.9049242,-0.015385143589587084
1756047319.906924,-0.011538857692190313
1756047319.908924,-0.007692571794793542
1756047319.9109242,-0.005128381196529028
1756047319.912924,-0.003846285897396771
1756047319.9149241,-0.002564190598264514
1756047319.916924,-0.002564190598264514
1756047319.918924,-0.001282095299132257
1756047319.9209242,-0.001282095299132257
1756047319.922924,0.0
1756047319.9249241,0.002564190598264514
1756047319.926924,0.0064104764956612855
1756047319.928924,0.011538857692190313
1756047319.9309242,0.016667238888719342
1756047319.932924,0.02179562008524837
1756047319.9349241,0.0269240012817774
1756047319.936924,0.032052382478306427
1756047319.938924,0.03461657307657094
1756047319.9409242,0.03718076367483546
1756047319.942924,0.038462858973967715
1756047319.944924,0.04102704957223222
1756047319.946924,0.04230914487136448
1756047319.948924,0.04359124017049674
1756047319.9509242,0.044873335469628996
1756047319.952924,0.04615543076876125
1756047319.954924,0.04615543076876125
1756047319.9569242,0.04615543076876125
1756047319.958924,0.044873335469628996
1756047319.9609241,0.04359124017049674
1756047319.962924,0.04102704957223222
1756047319.964924,0.039744954273099965
1756047319.9669242,0.03718076367483546
1756047319.968924,0.0358986683757032
1756047319.9709241,0.03461657307657094
1756047319.972924,0.03461657307657094
1756047319.974924,0.03718076367483546
1756047319.9769242,0.039744954273099965
1756047319.978924,0.04359124017049674
1756047319.9809241,0.04871962136702577
1756047319.982924,0.0538480025635548
1756047319.984924,0.06025847905921608
1756047319.9869242,0.06410476495661285
1756047319.988924,0.06795105085400963
1756047319.9909241,0.07051524145227414
1756047319.992924,0.07307943205053866
1756047319.994924,0.07307943205053866
1756047319.9969242,0.07436152734967091
1756047319.998924,0.07307943205053866
1756047320.000924,0.0717973367514064
1756047320.0029242,0.06923314615314188
1756047320.004924,0.06666895555487737
1756047320.0069242,0.06025847905921608
1756047320.008924,0.05513009786268705
1756047320.010924,0.04615543076876125
1756047320.0129242,0.038462858973967715
1756047320.014924,0.028206096580909654
1756047320.0169241,0.019231429486983857
1756047320.018924,0.0089746670939258
1756047320.020924,0.0
1756047320.0229242,-0.0089746670939258
1756047320.024924,-0.0179493341878516
1756047320.0269241,-0.023077715384380627
1756047320.028924,-0.028206096580909654
1756047320.030924,-0.032052382478306427
1756047320.0329242,-0.0358986683757032
1756047320.034924,-0.038462858973967715
1756047320.0369241,-0.04230914487136448
1756047320.038924,-0.044873335469628996
1756047320.040924,-0.04743752606789351
1756047320.0429242,-0.050001716666158026
1756047320.044924,-0.05256590726442254
1756047320.046924,-0.05513009786268705
1756047320.048924,-0.057694288460951565
1756047320.050924,-0.06025847905921608
1756047320.0529242,-0.06410476495661285
1756047320.054924,-0.06666895555487737
1756047320.056924,-0.07051524145227414
1756047320.0589242,-0.07307943205053866
1756047320.060924,-0.07692571794793543
1756047320.0629241,-0.07948990854619993
1756047320.064924,-0.0833361944435967
1756047320.066924,-0.08590038504186122
1756047320.0689242,-0.08974667093925799
1756047320.070924,-0.0923108615375225
1756047320.0729241,-0.09487505213578702
1756047320.074924,-0.09615714743491928
1756047320.076924,-0.0987213380331838
1756047320.0789242,-0.10128552863144831
1756047320.080924,-0.10384971922971283
1756047320.0829241,-0.1076960051271096
1756047320.084924,-0.11154229102450636
1756047320.086924,-0.11538857692190313
1756047320.0889242,-0.1192348628192999
1756047320.090924,-0.12179905341756442
1756047320.092924,-0.12436324401582893
1756047320.094924,-0.1256453393149612
1756047320.096924,-0.1282095299132257
1756047320.0989242,-0.1282095299132257
1756047320.100924,-0.12949162521235796
1756047320.102924,-0.1282095299132257
1756047320.1049242,-0.1282095299132257
1756047320.106924,-0.12692743461409345
1756047320.1089242,-0.12692743461409345
1756047320.110924,-0.12436324401582893
1756047320.112924,-0.12308114871669668
1756047320.1149242,-0.1192348628192999
1756047320.116924,-0.11538857692190313
1756047320.1189241,-0.1102601957253741
1756047320.120924,-0.10513181452884508
1756047320.122924,-0.09743924273405154
1756047320.1249242,-0.08974667093925799
1756047320.126924,-0.08205409914446445
1756047320.1289241,-0.07564362264880317
1756047320.130924,-0.07051524145227414
1756047320.132924,-0.06538686025574511
1756047320.1349242,-0.0628226696574806
1756047320.136924,-0.06025847905921608
1756047320.1389241,-0.06154057435834834
1756047320.140924,-0.0628226696574806
1756047320.142924,-0.06795105085400963
1756047320.1449242,-0.07307943205053866
1756047320.146924,-0.07820781324706769
1756047320.148924,-0.08461828974272896
1756047320.1509242,-0.08974667093925799
1756047320.152924,-0.09487505213578702
1756047320.1549242,-0.0987213380331838
1756047320.156924,-0.10256762393058057
1756047320.158924,-0.10256762393058057
1756047320.1609242,-0.10384971922971283
1756047320.162924,-0.10000343333231605
1756047320.1649241,-0.09615714743491928
1756047320.166924,-0.09102876623839025
1756047320.168924,-0.08718248034099348
1756047320.1709242,-0.08205409914446445
1756047320.172924,-0.07820781324706769
1756047320.1749241,-0.07307943205053866
1756047320.176924,-0.06923314615314188
1756047320.178924,-0.06538686025574511
1756047320.1809242,-0.0628226696574806
1756047320.182924,-0.06025847905921608
1756047320.1849241,-0.05897638376008382
1756047320.186924,-0.057694288460951565
1756047320.188924,-0.057694288460951565
1756047320.1909242,-0.057694288460951565
1756047320.192924,-0.05897638376008382
1756047320.194924,-0.06154057435834834
1756047320.196924,-0.06538686025574511
1756047320.198924,-0.07051524145227414
1756047320.2009242,-0.07564362264880317
1756047320.202924,-0.07948990854619993
1756047320.204924,-0.08461828974272896
1756047320.2069242,-0.08718248034099348
1756047320.208924,-0.08974667093925799
1756047320.2109241,-0.08846457564012573
1756047320.212924,-0.08846457564012573
1756047320.214924,-0.08461828974272896
1756047320.2169242,-0.08205409914446445
1756047320.218924,-0.07692571794793543
1756047320.2209241,-0.07307943205053866
1756047320.222924,-0.07051524145227414
1756047320.224924,-0.06795105085400963
1756047320.2269242,-0.06666895555487737
1756047320.228924,-0.06538686025574511
1756047320.2309241,-0.06538686025574511
1756047320.232924,-0.06666895555487737
1756047320.234924,-0.06923314615314188
1756047320.2369242,-0.0717973367514064
1756047320.238924,-0.07436152734967091
1756047320.2409241,-0.07692571794793543
1756047320.242924,-0.07948990854619993
1756047320.244924,-0.08205409914446445
1756047320.2469242,-0.08461828974272896
1756047320.248924,-0.08846457564012573
1756047320.250924,-0.09102876623839025
1756047320.2529242,-0.09487505213578702
1756047320.254924,-0.09615714743491928
1756047320.2569242,-0.09743924273405154
1756047320.258924,-0.09743924273405154
1756047320.260924,-0.09743924273405154
1756047320.2629242,-0.09615714743491928
1756047320.264924,-0.09615714743491928
1756047320.2669241,-0.09615714743491928
1756047320.268924,-0.09615714743491928
1756047320.270924,-0.09743924273405154
1756047320.2729242,-0.0987213380331838
1756047320.274924,-0.10128552863144831
1756047320.2769241,-0.10513181452884508
1756047320.278924,-0.10897810042624186
1756047320.280924,-0.11282438632363861
1756047320.2829242,-0.11538857692190313
1756047320.284924,-0.1192348628192999
1756047320.2869241,-0.12051695811843216
1756047320.288924,-0.12179905341756442
1756047320.290924,-0.12051695811843216
1756047320.2929242,-0.12051695811843216
1756047320.294924,-0.1192348628192999
1756047320.296924,-0.11795276752016765
1756047320.298924,-0.11667067222103539
1756047320.300924,-0.11538857692190313
1756047320.3029242,-0.11410648162277087
1756047320.304924,-0.11410648162277087
1756047320.306924,-0.11410648162277087
1756047320.3089242,-0.11410648162277087
1756047320.310924,-0.11410648162277087
1756047320.3129241,-0.11410648162277087
1756047320.314924,-0.11410648162277087
1756047320.316924,-0.11410648162277087
1756047320.3189242,-0.11410648162277087
1756047320.320924,-0.11538857692190313
1756047320.3229241,-0.11667067222103539
1756047320.324924,-0.11795276752016765
1756047320.326924,-0.1192348628192999
1756047320.3289242,-0.12179905341756442
1756047320.330924,-0.12308114871669668
1756047320.3329241,-0.1256453393149612
1756047320.334924,-0.12692743461409345
1756047320.336924,-0.1282095299132257
1756047320.3389242,-0.12949162521235796
1756047320.340924,-0.13205581581062248
1756047320.342924,-0.13205581581062248
1756047320.344924,-0.13205581581062248
1756047320.346924,-0.13077372051149022
1756047320.3489242,-0.13077372051149022
1756047320.350924,-0.13077372051149022
1756047320.352924,-0.13077372051149022
1756047320.3549242,-0.12949162521235796
1756047320.356924,-0.12949162521235796
1756047320.3589242,-0.1282095299132257
1756047320.360924,-0.1282095299132257
1756047320.362924,-0.12692743461409345
1756047320.3649242,-0.1256453393149612
1756047320.366924,-0.12308114871669668
1756047320.3689241,-0.12051695811843216
1756047320.370924,-0.11538857692190313
1756047320.372924,-0.1102601957253741
1756047320.3749242,-0.10384971922971283
1756047320.376924,-0.09743924273405154
1756047320.3789241,-0.08974667093925799
1756047320.380924,-0.08205409914446445
1756047320.382924,-0.07436152734967091
1756047320.3849242,-0.06666895555487737
1756047320.386924,-0.05897638376008382
1756047320.3889241,-0.051283811965290284
1756047320.390924,-0.04359124017049674
1756047320.392924,-0.0358986683757032
1756047320.3949242,-0.028206096580909654
1756047320.396924,-0.02179562008524837
1756047320.398924,-0.015385143589587084
1756047320.4009242,-0.010256762393058056
1756047320.402924,-0.005128381196529028
1756047320.4049242,-0.001282095299132257
1756047320.406924,0.0
1756047320.408924,0.0
1756047320.4109242,-0.003846285897396771
1756047320.412924,-0.007692571794793542
1756047320.4149241,-0.014103048290454827
1756047320.416924,-0.02051352478611611
1756047320.418924,-0.02948819188004191
1756047320.4209242,-0.038462858973967715
1756047320.422924,-0.04871962136702577
1756047320.4249241,-0.05897638376008382
1756047320.426924,-0.06795105085400963
1756047320.428924,-0.07692571794793543
1756047320.4309242,-0.08205409914446445
1756047320.432924,-0.08846457564012573
1756047320.4349241,-0.0923108615375225
1756047320.436924,-0.09615714743491928
1756047320.438924,-0.09487505213578702
1756047320.4409242,-0.09487505213578702
1756047320.442924,-0.0923108615375225
1756047320.444924,-0.08974667093925799
1756047320.446924,-0.08590038504186122
1756047320.448924,-0.08205409914446445
1756047320.4509242,-0.07820781324706769
1756047320.452924,-0.07436152734967091
1756047320.454924,-0.0717973367514064
1756047320.4569242,-0.07051524145227414
1756047320.458924,-0.0717973367514064
1756047320.4609241,-0.07307943205053866
1756047320.462924,-0.07692571794793543
1756047320.464924,-0.08077200384533219
1756047320.4669242,-0.08590038504186122
1756047320.468924,-0.09102876623839025
1756047320.4709241,-0.09615714743491928
1756047320.472924,-0.10128552863144831
1756047320.474924,-0.10513181452884508
1756047320.4769242,-0.1102601957253741
1756047320.478924,-0.11282438632363861
1756047320.4809241,-0.11538857692190313
1756047320.482924,-0.11795276752016765
1756047320.484924,-0.12179905341756442
1756047320.4869242,-0.12436324401582893
1756047320.488924,-0.12692743461409345
1756047320.4909241,-0.1282095299132257
1756047320.492924,-0.13077372051149022
1756047320.494924,-0.13333791110975474
1756047320.4969242,-0.13590210170801925
1756047320.498924,-0.14103048290454828
1756047320.500924,-0.1461588641010773
1756047320.5029242,-0.15128724529760634
1756047320.504924,-0.1576977217932676
1756047320.5069242,-0.16282610298979663
1756047320.508924,-0.16795448418632566
1756047320.510924,-0.16795448418632566
1756047320.5129242,-0.16923657948545792
1756047320.514924,-0.15385143589587086
1756047320.5169241,-0.13846629230628377
1756047320.518924,-0.1076960051271096
1756047320.520924,-0.07692571794793543
1756047320.5229242,-0.028206096580909654
1756047320.524924,0.02051352478611611
1756047320.5269241,0.08077200384533219
1756047320.528924,0.14231257820368054
1756047320.530924,0.20257105726289662
1756047320.5329242,0.26411163162124496
1756047320.534924,0.3115491576891385
1756047320.5369241,0.3602687790561642
1756047320.538924,0.38719278033794163
1756047320.540924,0.41411678161971904
1756047320.5429242,0.4179630675171158
1756047320.544924,0.42309144871364485
1756047320.546924,0.40898840042319
1756047320.548924,0.39616744743186744
1756047320.550924,0.37437182734661906
1756047320.5529242,0.35385830256050294
1756047320.554924,0.33206268247525456
1756047320.556924,0.3115491576891385
1756047320.5589242,0.2923177282021546
1756047320.560924,0.27308629871517076
1756047320.5629241,0.2538548692281869
1756047320.564924,0.2359055350403353
1756047320.566924,0.21410991495508694
1756047320.5689242,0.19231429486983856
1756047320.570924,0.1666723888871934
1756047320.5729241,0.14103048290454828
1756047320.574924,0.11282438632363861
1756047320.576924,0.08461828974272896
1756047320.5789242,0.05897638376008382
1756047320.580924,0.03461657307657094
1756047320.5829241,0.015385143589587084
1756047320.584924,-0.002564190598264514
1756047320.586924,-0.012820952991322571
1756047320.5889242,-0.024359810683512884
1756047320.590924,-0.02948819188004191
1756047320.592924,-0.0358986683757032
1756047320.594924,-0.038462858973967715
1756047320.596924,-0.04102704957223222
1756047320.5989242,-0.04359124017049674
1756047320.600924,-0.04743752606789351
1756047320.602924,-0.050001716666158026
1756047320.6049242,-0.0538480025635548
1756047320.606924,-0.057694288460951565
1756047320.6089242,-0.06154057435834834
1756047320.610924,-0.06410476495661285
1756047320.612924,-0.06795105085400963
1756047320.6149242,-0.06795105085400963
1756047320.616924,-0.06923314615314188
1756047320.6189241,-0.06666895555487737
1756047320.620924,-0.06538686025574511
1756047320.622924,-0.06025847905921608
1756047320.6249242,-0.05641219316181931
1756047320.626924,-0.051283811965290284
1756047320.6289241,-0.04743752606789351
1756047320.630924,-0.04359124017049674
1756047320.632924,-0.04102704957223222
1756047320.6349242,-0.038462858973967715
1756047320.636924,-0.03718076367483546
1756047320.6389241,-0.0358986683757032
1756047320.640924,-0.0358986683757032
1756047320.642924,-0.03461657307657094
1756047320.6449242,-0.03461657307657094
1756047320.646924,-0.033334477777438684
1756047320.648924,-0.033334477777438684
1756047320.6509242,-0.032052382478306427
1756047320.652924,-0.03077028717917417
1756047320.6549242,-0.02948819188004191
1756047320.656924,-0.02948819188004191
1756047320.658924,-0.02948819188004191
1756047320.6609242,-0.02948819188004191
1756047320.662924,-0.02948819188004191
1756047320.6649241,-0.03077028717917417
1756047320.666924,-0.03077028717917417
1756047320.668924,-0.032052382478306427
1756047320.6709242,-0.02948819188004191
1756047320.672924,-0.0269240012817774
1756047320.6749241,-0.023077715384380627
1756047320.676924,-0.019231429486983857
1756047320.678924,-0.014103048290454827
1756047320.6809242,-0.0089746670939258
1756047320.682924,-0.002564190598264514
1756047320.6849241,0.002564190598264514
1756047320.686924,0.007692571794793542
1756047320.688924,0.012820952991322571
1756047320.6909242,0.016667238888719342
1756047320.692924,0.02179562008524837
1756047320.694924,0.025641905982645142
1756047320.696924,0.03077028717917417
1756047320.698924,0.03461657307657094
1756047320.7009242,0.039744954273099965
1756047320.702924,0.04359124017049674
1756047320.704924,0.04743752606789351
1756047320.7069242,0.050001716666158026
1756047320.708924,0.05256590726442254
1756047320.7109241,0.05513009786268705
1756047320.712924,0.057694288460951565
1756047320.714924,0.05897638376008382
1756047320.7169242,0.06154057435834834
1756047320.718924,0.06410476495661285
1756047320.7209241,0.06666895555487737
1756047320.722924,0.06923314615314188
1756047320.724924,0.07307943205053866
1756047320.7269242,0.07564362264880317
1756047320.728924,0.07948990854619993
1756047320.7309241,0.08205409914446445
1756047320.732924,0.08590038504186122
1756047320.734924,0.08846457564012573
1756047320.7369242,0.09102876623839025
1756047320.738924,0.0923108615375225
1756047320.7409241,0.09359295683665476
1756047320.742924,0.09359295683665476
1756047320.744924,0.09359295683665476
1756047320.7469242,0.09487505213578702
1756047320.748924,0.09615714743491928
1756047320.750924,0.09743924273405154
1756047320.7529242,0.10000343333231605
1756047320.754924,0.10256762393058057
1756047320.7569242,0.10641390982797734
1756047320.758924,0.11154229102450636
1756047320.760924,0.11795276752016765
1756047320.7629242,0.12436324401582893
1756047320.764924,0.13077372051149022
1756047320.7669241,0.1371841970071515
1756047320.768924,0.1435946735028128
1756047320.770924,0.1461588641010773
1756047320.7729242,0.15000514999847409
1756047320.774924,0.15128724529760634
1756047320.7769241,0.1525693405967386
1756047320.778924,0.15000514999847409
1756047320.780924,0.14744095940020957
1756047320.7829242,0.1435946735028128
1756047320.784924,0.14103048290454828
1756047320.7869241,0.1371841970071515
1756047320.788924,0.13333791110975474
1756047320.790924,0.13077372051149022
1756047320.7929242,0.1282095299132257
1756047320.794924,0.1256453393149612
1756047320.796924,0.12308114871669668
1756047320.798924,0.1192348628192999
1756047320.800924,0.11667067222103539
1756047320.8029242,0.11154229102450636
1756047320.804924,0.10641390982797734
1756047320.806924,0.0987213380331838
1756047320.8089242,0.09102876623839025
1756047320.810924,0.08205409914446445
1756047320.8129241,0.07307943205053866
1756047320.814924,0.0628226696574806
1756047320.816924,0.0538480025635548
1756047320.8189242,0.04615543076876125
1756047320.820924,0.039744954273099965
1756047320.8229241,0.033334477777438684
1756047320.824924,0.028206096580909654
1756047320.826924,0.024359810683512884
1756047320.8289242,0.02179562008524837
1756047320.830924,0.02051352478611611
1756047320.8329241,0.019231429486983857
1756047320.834924,0.0179493341878516
1756047320.836924,0.0179493341878516
1756047320.8389242,0.016667238888719342
1756047320.840924,0.016667238888719342
1756047320.842924,0.016667238888719342
1756047320.844924,0.0179493341878516
1756047320.846924,0.019231429486983857
1756047320.8489242,0.02179562008524837
1756047320.850924,0.023077715384380627
1756047320.852924,0.025641905982645142
1756047320.8549242,0.025641905982645142
1756047320.856924,0.025641905982645142
1756047320.8589242,0.023077715384380627
1756047320.860924,0.02179562008524837
1756047320.862924,0.016667238888719342
1756047320.8649242,0.011538857692190313
1756047320.866924,0.003846285897396771
1756047320.8689241,-0.002564190598264514
1756047320.870924,-0.007692571794793542
1756047320.872924,-0.014103048290454827
1756047320.8749242,-0.015385143589587084
1756047320.876924,-0.016667238888719342
1756047320.8789241,-0.014103048290454827
1756047320.880924,-0.011538857692190313
1756047320.882924,-0.0064104764956612855
1756047320.8849242,-0.002564190598264514
1756047320.886924,0.001282095299132257
1756047320.8889241,0.0064104764956612855
1756047320.890924,0.0089746670939258
1756047320.892924,0.011538857692190313
1756047320.8949242,0.010256762393058056
1756047320.896924,0.0089746670939258
1756047320.898924,0.005128381196529028
1756047320.9009242,0.002564190598264514
1756047320.902924,0.0
1756047320.9049242,-0.002564190598264514
1756047320.906924,-0.005128381196529028
1756047320.908924,-0.007692571794793542
1756047320.9109242,-0.0064104764956612855
1756047320.912924,-0.0064104764956612855
1756047320.9149241,-0.003846285897396771
1756047320.916924,-0.002564190598264514
1756047320.918924,0.0
1756047320.9209242,0.003846285897396771
1756047320.922924,0.007692571794793542
1756047320.9249241,0.011538857692190313
1756047320.926924,0.014103048290454827
1756047320.928924,0.016667238888719342
1756047320.9309242,0.0179493341878516
1756047320.932924,0.019231429486983857
1756047320.9349241,0.0179493341878516
1756047320.936924,0.016667238888719342
1756047320.938924,0.012820952991322571
1756047320.9409242,0.010256762393058056
1756047320.942924,0.005128381196529028
1756047320.944924,0.001282095299132257
1756047320.946924,-0.002564190598264514
1756047320.948924,-0.0064104764956612855
1756047320.9509242,-0.0089746670939258
1756047320.952924,-0.012820952991322571
1756047320.954924,-0.014103048290454827
1756047320.9569242,-0.015385143589587084
1756047320.958924,-0.014103048290454827
1756047320.9609241,-0.014103048290454827
1756047320.962924,-0.012820952991322571
1756047320.964924,-0.012820952991322571
1756047320.9669242,-0.011538857692190313
1756047320.968924,-0.010256762393058056
1756047320.9709241,-0.007692571794793542
1756047320.972924,-0.0064104764956612855
1756047320.974924,-0.003846285897396771
1756047320.9769242,-0.001282095299132257
1756047320.978924,0.002564190598264514
1756047320.9809241,0.007692571794793542
1756047320.982924,0.014103048290454827
1756047320.984924,0.02179562008524837
1756047320.9869242,0.028206096580909654
1756047320.988924,0.0358986683757032
1756047320.9909241,0.04102704957223222
1756047320.992924,0.04615543076876125
1756047320.994924,0.04871962136702577
1756047320.9969242,0.051283811965290284
1756047320.998924,0.050001716666158026
1756047321.000924,0.04871962136702577
1756047321.0029242,0.044873335469628996
1756047321.004924,0.04230914487136448
1756047321.0069242,0.038462858973967715
1756047321.008924,0.0358986683757032
1756047321.010924,0.033334477777438684
1756047321.0129242,0.03077028717917417
1756047321.014924,0.02948819188004191
1756047321.0169241,0.028206096580909654
1756047321.018924,0.0269240012817774
1756047321.020924,0.0269240012817774
1756047321.0229242,0.028206096580909654
1756047321.024924,0.02948819188004191
1756047321.0269241,0.02948819188004191
1756047321.028924,0.03077028717917417
1756047321.030924,0.028206096580909654
1756047321.0329242,0.0269240012817774
1756047321.034924,0.023077715384380627
1756047321.0369241,0.02051352478611611
1756047321.038924,0.016667238888719342
1756047321.040924,0.012820952991322571
1756047321.0429242,0.0089746670939258
1756047321.044924,0.0064104764956612855
1756047321.046924,0.005128381196529028
1756047321.048924,0.003846285897396771
1756047321.050924,0.005128381196529028
1756047321.0529242,0.0064104764956612855
1756047321.054924,0.010256762393058056
1756047321.056924,0.014103048290454827
1756047321.0589242,0.019231429486983857
1756047321.060924,0.024359810683512884
1756047321.0629241,0.02948819188004191
1756047321.064924,0.0358986683757032
1756047321.066924,0.039744954273099965
1756047321.0689242,0.044873335469628996
1756047321.070924,0.04743752606789351
1756047321.0729241,0.050001716666158026
1756047321.074924,0.050001716666158026
1756047321.076924,0.050001716666158026
1756047321.0789242,0.04743752606789351
1756047321.080924,0.04615543076876125
1756047321.0829241,0.04359124017049674
1756047321.084924,0.04230914487136448
1756047321.086924,0.039744954273099965
1756047321.0889242,0.03718076367483546
1756047321.090924,0.03461657307657094
1756047321.092924,0.032052382478306427
1756047321.094924,0.02948819188004191
1756047321.096924,0.028206096580909654
1756047321.0989242,0.025641905982645142
1756047321.100924,0.024359810683512884
1756047321.102924,0.023077715384380627
1756047321.1049242,0.02179562008524837
1756047321.106924,0.02051352478611611
1756047321.1089242,0.02051352478611611
1756047321.110924,0.023077715384380627
1756047321.112924,0.025641905982645142
1756047321.1149242,0.02948819188004191
1756047321.116924,0.03461657307657094
1756047321.1189241,0.039744954273099965
1756047321.120924,0.04615543076876125
1756047321.122924,0.051283811965290284
1756047321.1249242,0.05641219316181931
1756047321.126924,0.05897638376008382
1756047321.1289241,0.06154057435834834
1756047321.130924,0.06154057435834834
1756047321.132924,0.0628226696574806
1756047321.1349242,0.06025847905921608
1756047321.136924,0.05897638376008382
1756047321.1389241,0.05641219316181931
1756047321.140924,0.05513009786268705
1756047321.142924,0.0538480025635548
1756047321.1449242,0.0538480025635548
1756047321.146924,0.0538480025635548
1756047321.148924,0.0538480025635548
1756047321.1509242,0.05513009786268705
1756047321.152924,0.057694288460951565
1756047321.1549242,0.06025847905921608
1756047321.156924,0.0628226696574806
1756047321.158924,0.06538686025574511
1756047321.1609242,0.06795105085400963
1756047321.162924,0.07051524145227414
1756047321.1649241,0.07307943205053866
1756047321.166924,0.07564362264880317
1756047321.168924,0.07948990854619993
1756047321.1709242,0.08077200384533219
1756047321.172924,0.0833361944435967
1756047321.1749241,0.08461828974272896
1756047321.176924,0.08590038504186122
1756047321.178924,0.08461828974272896
1756047321.1809242,0.08461828974272896
1756047321.182924,0.08205409914446445
1756047321.1849241,0.07948990854619993
1756047321.186924,0.07436152734967091
1756047321.188924,0.06923314615314188
1756047321.1909242,0.06025847905921608
1756047321.192924,0.05256590726442254
1756047321.194924,0.04230914487136448
1756047321.196924,0.033334477777438684
1756047321.198924,0.023077715384380627
1756047321.2009242,0.012820952991322571
1756047321.202924,0.003846285897396771
1756047321.204924,-0.003846285897396771
1756047321.2069242,-0.010256762393058056
1756047321.208924,-0.016667238888719342
1756047321.2109241,-0.02051352478611611
1756047321.212924,-0.024359810683512884
1756047321.214924,-0.025641905982645142
1756047321.2169242,-0.028206096580909654
1756047321.218924,-0.028206096580909654
1756047321.2209241,-0.02948819188004191
1756047321.222924,-0.02948819188004191
1756047321.224924,-0.03077028717917417
1756047321.2269242,-0.032052382478306427
1756047321.228924,-0.033334477777438684
1756047321.2309241,-0.03461657307657094
1756047321.232924,-0.03718076367483546
1756047321.234924,-0.03718076367483546
1756047321.2369242,-0.038462858973967715
1756047321.238924,-0.038462858973967715
1756047321.2409241,-0.039744954273099965
1756047321.242924,-0.039744954273099965
1756047321.244924,-0.04102704957223222
1756047321.2469242,-0.04230914487136448
1756047321.248924,-0.04359124017049674
1756047321.250924,-0.04615543076876125
1756047321.2529242,-0.050001716666158026
1756047321.254924,-0.05513009786268705
1756047321.2569242,-0.06025847905921608
1756047321.258924,-0.06538686025574511
1756047321.260924,-0.07051524145227414
1756047321.2629242,-0.07692571794793543
1756047321.264924,-0.0833361944435967
1756047321.2669241,-0.08974667093925799
1756047321.268924,-0.09615714743491928
1756047321.270924,-0.10128552863144831
1756047321.2729242,-0.10641390982797734
1756047321.274924,-0.1076960051271096
1756047321.2769241,-0.10897810042624186
1756047321.278924,-0.10128552863144831
1756047321.280924,-0.09487505213578702
1756047321.2829242,-0.07436152734967091
1756047321.284924,-0.05513009786268705
1756047321.2869241,-0.019231429486983857
1756047321.288924,0.015385143589587084
1756047321.290924,0.06538686025574511
1756047321.2929242,0.11667067222103539
1756047321.294924,0.17436496068198695
1756047321.296924,0.23334134444207077
1756047321.298924,0.2871893470056256
1756047321.300924,0.3423194448683126
1756047321.3029242,0.38078230384228035
1756047321.304924,0.42052725811538033
1756047321.306924,0.4371944970040997
1756047321.3089242,0.453861735892819
1756047321.310924,0.4474512593971577
1756047321.3129241,0.44232287820062866
1756047321.314924,0.4218093534145126
1756047321.316924,0.40129582862839647
1756047321.3189242,0.3756539226457513
1756047321.320924,0.3512941119622384
1756047321.3229241,0.3269343012787255
1756047321.324924,0.30385658589434494
1756047321.326924,0.2833430611082288
1756047321.3289242,0.26411163162124496
1756047321.330924,0.2448802021342611
1756047321.3329241,0.2269308679464095
1756047321.334924,0.2064173431602934
1756047321.336924,0.18718591367330953
1756047321.3389242,0.16282610298979663
1756047321.340924,0.13974838760541602
1756047321.342924,0.11410648162277087
1756047321.344924,0.08974667093925799
1756047321.346924,0.06666895555487737
1756047321.3489242,0.044873335469628996
1756047321.350924,0.0269240012817774
1756047321.352924,0.010256762393058056
1756047321.3549242,0.0
1756047321.356924,-0.010256762393058056
1756047321.3589242,-0.015385143589587084
1756047321.360924,-0.02051352478611611
1756047321.362924,-0.02179562008524837
1756047321.3649242,-0.023077715384380627
1756047321.366924,-0.02179562008524837
1756047321.3689241,-0.02051352478611611
1756047321.370924,-0.0179493341878516
1756047321.372924,-0.016667238888719342
1756047321.3749242,-0.015385143589587084
1756047321.376924,-0.014103048290454827
1756047321.3789241,-0.012820952991322571
1756047321.380924,-0.011538857692190313
1756047321.382924,-0.010256762393058056
1756047321.3849242,-0.010256762393058056
1756047321.386924,-0.010256762393058056
1756047321.3889241,-0.011538857692190313
1756047321.390924,-0.012820952991322571
1756047321.392924,-0.015385143589587084
1756047321.3949242,-0.0179493341878516
1756047321.396924,-0.02179562008524837
1756047321.398924,-0.024359810683512884
1756047321.4009242,-0.0269240012817774
1756047321.402924,-0.02948819188004191
1756047321.4049242,-0.032052382478306427
1756047321.406924,-0.032052382478306427
1756047321.408924,-0.033334477777438684
1756047321.4109242,-0.03077028717917417
1756047321.412924,-0.02948819188004191
1756047321.4149241,-0.0269240012817774
1756047321.416924,-0.024359810683512884
1756047321.418924,-0.02051352478611611
1756047321.4209242,-0.0179493341878516
1756047321.422924,-0.014103048290454827
1756047321.4249241,-0.010256762393058056
1756047321.426924,-0.0064104764956612855
1756047321.428924,-0.003846285897396771
1756047321.4309242,0.0
1756047321.432924,0.002564190598264514
1756047321.4349241,0.0064104764956612855
1756047321.436924,0.010256762393058056
1756047321.438924,0.014103048290454827
1756047321.4409242,0.0179493341878516
1756047321.442924,0.019231429486983857
1756047321.444924,0.02179562008524837
1756047321.446924,0.02179562008524837
1756047321.448924,0.023077715384380627
1756047321.4509242,0.023077715384380627
1756047321.452924,0.023077715384380627
1756047321.454924,0.02179562008524837
1756047321.4569242,0.02051352478611611
1756047321.458924,0.019231429486983857
1756047321.4609241,0.019231429486983857
1756047321.462924,0.019231429486983857
1756047321.464924,0.02051352478611611
1756047321.4669242,0.02179562008524837
1756047321.468924,0.024359810683512884
1756047321.4709241,0.0269240012817774
1756047321.472924,0.03077028717917417
1756047321.474924,0.03461657307657094
1756047321.4769242,0.039744954273099965
1756047321.478924,0.04359124017049674
1756047321.4809241,0.04871962136702577
1756047321.482924,0.05256590726442254
1756047321.484924,0.057694288460951565
1756047321.4869242,0.06154057435834834
1756047321.488924,0.06666895555487737
1756047321.4909241,0.0717973367514064
1756047321.492924,0.07692571794793543
1756047321.494924,0.08205409914446445
1756047321.4969242,0.08718248034099348
1756047321.498924,0.09359295683665476
1756047321.500924,0.10000343333231605
1756047321.5029242,0.10641390982797734
1756047321.504924,0.11410648162277087
1756047321.5069242,0.1192348628192999
1756047321.508924,0.12436324401582893
1756047321.510924,0.1282095299132257
1756047321.5129242,0.13205581581062248
1756047321.514924,0.13205581581062248
1756047321.5169241,0.13333791110975474
1756047321.518924,0.13077372051149022
1756047321.520924,0.12949162521235796
1756047321.5229242,0.1256453393149612
1756047321.524924,0.12308114871669668
1756047321.5269241,0.1192348628192999
1756047321.528924,0.11667067222103539
1756047321.530924,0.11282438632363861
1756047321.5329242,0.1102601957253741
1756047321.534924,0.1076960051271096
1756047321.5369241,0.10513181452884508
1756047321.538924,0.10256762393058057
1756047321.540924,0.10000343333231605
1756047321.5429242,0.09743924273405154
1756047321.544924,0.09487505213578702
1756047321.546924,0.0923108615375225
1756047321.548924,0.09102876623839025
1756047321.550924,0.08974667093925799
1756047321.5529242,0.08974667093925799
1756047321.554924,0.08974667093925799
1756047321.556924,0.09102876623839025
1756047321.5589242,0.09359295683665476
1756047321.560924,0.09615714743491928
1756047321.5629241,0.09743924273405154
1756047321.564924,0.0987213380331838
1756047321.566924,0.09615714743491928
1756047321.5689242,0.09487505213578702
1756047321.570924,0.08974667093925799
1756047321.5729241,0.08590038504186122
1756047321.574924,0.07948990854619993
1756047321.576924,0.07307943205053866
1756047321.5789242,0.06538686025574511
1756047321.580924,0.057694288460951565
1756047321.5829241,0.050001716666158026
1756047321.584924,0.04359124017049674
1756047321.586924,0.03718076367483546
1756047321.5889242,0.03077028717917417
1756047321.590924,0.024359810683512884
1756047321.592924,0.0179493341878516
1756047321.594924,0.010256762393058056
1756047321.596924,0.003846285897396771
1756047321.5989242,-0.001282095299132257
1756047321.600924,-0.007692571794793542
1756047321.602924,-0.012820952991322571
1756047321.6049242,-0.019231429486983857
1756047321.606924,-0.023077715384380627
1756047321.6089242,-0.0269240012817774
1756047321.610924,-0.02948819188004191
1756047321.612924,-0.032052382478306427
1756047321.6149242,-0.033334477777438684
1756047321.616924,-0.0358986683757032
1756047321.6189241,-0.03718076367483546
1756047321.620924,-0.038462858973967715
1756047321.622924,-0.038462858973967715
1756047321.6249242,-0.039744954273099965
1756047321.626924,-0.03718076367483546
1756047321.6289241,-0.0358986683757032
1756047321.630924,-0.032052382478306427
1756047321.632924,-0.02948819188004191
1756047321.6349242,-0.0269240012817774
1756047321.636924,-0.024359810683512884
1756047321.6389241,-0.024359810683512884
1756047321.640924,-0.025641905982645142
1756047321.642924,-0.028206096580909654
1756047321.6449242,-0.032052382478306427
1756047321.646924,-0.03718076367483546
1756047321.648924,-0.04230914487136448
1756047321.6509242,-0.04615543076876125
1756047321.652924,-0.051283811965290284
1756047321.6549242,-0.05256590726442254
1756047321.656924,-0.05513009786268705
1756047321.658924,-0.0538480025635548
1756047321.6609242,-0.05256590726442254
1756047321.662924,-0.04871962136702577
1756047321.6649241,-0.04615543076876125
1756047321.666924,-0.04230914487136448
1756047321.668924,-0.039744954273099965
1756047321.6709242,-0.03718076367483546
1756047321.672924,-0.0358986683757032
1756047321.6749241,-0.03461657307657094
1756047321.676924,-0.03461657307657094
1756047321.678924,-0.033334477777438684
1756047321.6809242,-0.032052382478306427
1756047321.682924,-0.02948819188004191
1756047321.6849241,-0.028206096580909654
1756047321.686924,-0.025641905982645142
1756047321.688924,-0.023077715384380627
1756047321.6909242,-0.02051352478611611
1756047321.692924,-0.019231429486983857
1756047321.694924,-0.02051352478611611
1756047321.696924,-0.02179562008524837
1756047321.698924,-0.025641905982645142
1756047321.7009242,-0.03077028717917417
1756047321.702924,-0.0358986683757032
1756047321.704924,-0.04230914487136448
1756047321.7069242,-0.04615543076876125
1756047321.708924,-0.050001716666158026
1756047321.7109241,-0.051283811965290284
1756047321.712924,-0.05256590726442254
1756047321.714924,-0.04871962136702577
1756047321.7169242,-0.04615543076876125
1756047321.718924,-0.04230914487136448
1756047321.7209241,-0.038462858973967715
1756047321.722924,-0.03461657307657094
1756047321.724924,-0.032052382478306427
1756047321.7269242,-0.03077028717917417
1756047321.728924,-0.03077028717917417
1756047321.7309241,-0.03077028717917417
1756047321.732924,-0.032052382478306427
1756047321.734924,-0.03077028717917417
1756047321.7369242,-0.03077028717917417
1756047321.738924,-0.0269240012817774
1756047321.7409241,-0.024359810683512884
1756047321.742924,-0.0179493341878516
1756047321.744924,-0.012820952991322571
1756047321.7469242,-0.0064104764956612855
1756047321.748924,0.0
1756047321.750924,0.002564190598264514
1756047321.7529242,0.0064104764956612855
1756047321.754924,0.005128381196529028
1756047321.7569242,0.005128381196529028
1756047321.758924,0.0
1756047321.760924,-0.0064104764956612855
1756047321.7629242,-0.014103048290454827
1756047321.764924,-0.023077715384380627
1756047321.7669241,-0.03077028717917417
1756047321.768924,-0.038462858973967715
1756047321.770924,-0.04230914487136448
1756047321.7729242,-0.04743752606789351
1756047321.774924,-0.04743752606789351
1756047321.7769241,-0.04871962136702577
1756047321.778924,-0.04230914487136448
1756047321.780924,-0.03718076367483546
1756047321.7829242,-0.03077028717917417
1756047321.784924,-0.024359810683512884
1756047321.7869241,-0.016667238888719342
1756047321.788924,-0.0089746670939258
1756047321.790924,-0.003846285897396771
1756047321.7929242,0.0
1756047321.794924,0.001282095299132257
1756047321.796924,0.002564190598264514
1756047321.798924,0.0
1756047321.800924,-0.001282095299132257
1756047321.8029242,-0.007692571794793542
1756047321.804924,-0.014103048290454827
1756047321.806924,-0.019231429486983857
1756047321.8089242,-0.025641905982645142
1756047321.810924,-0.02948819188004191
1756047321.8129241,-0.033334477777438684
1756047321.814924,-0.03461657307657094
1756047321.816924,-0.0358986683757032
1756047321.8189242,-0.033334477777438684
1756047321.820924,-0.03077028717917417
1756047321.8229241,-0.0269240012817774
1756047321.824924,-0.023077715384380627
1756047321.826924,-0.02051352478611611
1756047321.8289242,-0.0179493341878516
1756047321.830924,-0.016667238888719342
1756047321.8329241,-0.016667238888719342
1756047321.834924,-0.016667238888719342
1756047321.836924,-0.0179493341878516
1756047321.8389242,-0.0179493341878516
1756047321.840924,-0.019231429486983857
1756047321.842924,-0.019231429486983857
1756047321.844924,-0.019231429486983857
1756047321.846924,-0.0179493341878516
1756047321.8489242,-0.0179493341878516
1756047321.850924,-0.0179493341878516
1756047321.852924,-0.019231429486983857
1756047321.8549242,-0.02051352478611611
1756047321.856924,-0.02179562008524837
1756047321.8589242,-0.024359810683512884
1756047321.860924,-0.0269240012817774
1756047321.862924,-0.03077028717917417
1756047321.8649242,-0.03461657307657094
1756047321.866924,-0.03718076367483546
1756047321.8689241,-0.04102704957223222
1756047321.870924,-0.04359124017049674
1756047321.872924,-0.04615543076876125
1756047321.8749242,-0.04743752606789351
1756047321.876924,-0.04871962136702577
1756047321.8789241,-0.04871962136702577
1756047321.880924,-0.050001716666158026
1756047321.882924,-0.04743752606789351
1756047321.8849242,-0.04615543076876125
1756047321.886924,-0.04359124017049674
1756047321.8889241,-0.04102704957223222
1756047321.890924,-0.0358986683757032
1756047321.892924,-0.03077028717917417
1756047321.8949242,-0.025641905982645142
1756047321.896924,-0.02051352478611611
1756047321.898924,-0.015385143589587084
1756047321.9009242,-0.011538857692190313
1756047321.902924,-0.0089746670939258
1756047321.9049242,-0.007692571794793542
1756047321.906924,-0.007692571794793542
1756047321.908924,-0.0089746670939258
1756047321.9109242,-0.011538857692190313
1756047321.912924,-0.014103048290454827
1756047321.9149241,-0.016667238888719342
1756047321.916924,-0.019231429486983857
1756047321.918924,-0.019231429486983857
1756047321.9209242,-0.02051352478611611
1756047321.922924,-0.016667238888719342
1756047321.9249241,-0.014103048290454827
1756047321.926924,-0.007692571794793542
1756047321.928924,-0.002564190598264514
1756047321.9309242,0.003846285897396771
1756047321.932924,0.010256762393058056
1756047321.9349241,0.015385143589587084
1756047321.936924,0.02179562008524837
1756047321.938924,0.024359810683512884
1756047321.9409242,0.028206096580909654
1756047321.942924,0.0269240012817774
1756047321.944924,0.0269240012817774
1756047321.946924,0.023077715384380627
1756047321.948924,0.019231429486983857
1756047321.9509242,0.015385143589587084
1756047321.952924,0.011538857692190313
1756047321.954924,0.0089746670939258
1756047321.9569242,0.0064104764956612855
1756047321.958924,0.005128381196529028
1756047321.9609241,0.005128381196529028
1756047321.962924,0.005128381196529028
1756047321.964924,0.0064104764956612855
1756047321.9669242,0.007692571794793542
1756047321.968924,0.0089746670939258
1756047321.9709241,0.0089746670939258
1756047321.972924,0.010256762393058056
1756047321.974924,0.007692571794793542
1756047321.9769242,0.0064104764956612855
1756047321.978924,0.002564190598264514
1756047321.9809241,0.0
1756047321.982924,-0.005128381196529028
1756047321.984924,-0.010256762393058056
1756047321.9869242,-0.0179493341878516
1756047321.988924,-0.025641905982645142
1756047321.9909241,-0.032052382478306427
1756047321.992924,-0.039744954273099965
1756047321.994924,-0.04615543076876125
1756047321.9969242,-0.0538480025635548
1756047321.998924,-0.05897638376008382
1756047322.000924,-0.06538686025574511
1756047322.0029242,-0.06923314615314188
1756047322.004924,-0.07307943205053866
1756047322.0069242,-0.07436152734967091
1756047322.008924,-0.07564362264880317
1756047322.010924,-0.07436152734967091
1756047322.0129242,-0.07436152734967091
1756047322.014924,-0.07307943205053866
1756047322.0169241,-0.07307943205053866
1756047322.018924,-0.0717973367514064
1756047322.020924,-0.07051524145227414
1756047322.0229242,-0.07051524145227414
1756047322.024924,-0.0717973367514064
1756047322.0269241,-0.0717973367514064
1756047322.028924,-0.07307943205053866
1756047322.030924,-0.0717973367514064
1756047322.0329242,-0.0717973367514064
1756047322.034924,-0.07051524145227414
1756047322.0369241,-0.07051524145227414
1756047322.038924,-0.0717973367514064
1756047322.040924,-0.07436152734967091
1756047322.0429242,-0.08077200384533219
1756047322.044924,-0.08718248034099348
1756047322.046924,-0.09615714743491928
1756047322.048924,-0.10513181452884508
1756047322.050924,-0.11154229102450636
1756047322.0529242,-0.1192348628192999
1756047322.054924,-0.12051695811843216
1756047322.056924,-0.12179905341756442
1756047322.0589242,-0.10513181452884508
1756047322.060924,-0.08846457564012573
1756047322.0629241,-0.0538480025635548
1756047322.064924,-0.019231429486983857
1756047322.066924,0.03077028717917417
1756047322.0689242,0.08077200384533219
1756047322.070924,0.13974838760541602
1756047322.0729241,0.2000068666646321
1756047322.074924,0.25770115512558367
1756047322.076924,0.31667753888566746
1756047322.0789242,0.364115064953561
1756047322.080924,0.41155259102145453
1756047322.0829241,0.43975868760236414
1756047322.084924,0.46924687948240607
1756047322.086924,0.47822154657633187
1756047322.0889242,0.48847830896938993
1756047322.090924,0.48206783247372864
1756047322.092924,0.4769394512771996
1756047322.094924,0.46027221238848026
1756047322.096924,0.44488706879889317
1756047322.0989242,0.42309144871364485
1756047322.100924,0.4025779239275287
1756047322.102924,0.3769360179448836
1756047322.1049242,0.3525762072613707
1756047322.106924,0.324370110680461
1756047322.1089242,0.29744610939868366
1756047322.110924,0.2653937269203772
1756047322.112924,0.23462343974120303
1756047322.1149242,0.20128896196376436
1756047322.116924,0.16923657948545792
1756047322.1189241,0.13846629230628377
1756047322.120924,0.10897810042624186
1756047322.122924,0.0833361944435967
1756047322.1249242,0.05897638376008382
1756047322.126924,0.039744954273099965
1756047322.1289241,0.02179562008524837
1756047322.130924,0.010256762393058056
1756047322.132924,-0.001282095299132257
1756047322.1349242,-0.010256762393058056
1756047322.136924,-0.019231429486983857
1756047322.1389241,-0.025641905982645142
1756047322.140924,-0.032052382478306427
1756047322.142924,-0.0358986683757032
1756047322.1449242,-0.04102704957223222
1756047322.146924,-0.04359124017049674
1756047322.148924,-0.04743752606789351
1756047322.1509242,-0.04743752606789351
1756047322.152924,-0.04871962136702577
1756047322.1549242,-0.04743752606789351
1756047322.156924,-0.04615543076876125
1756047322.158924,-0.04359124017049674
1756047322.1609242,-0.04102704957223222
1756047322.162924,-0.0358986683757032
1756047322.1649241,-0.032052382478306427
1756047322.166924,-0.0269240012817774
1756047322.168924,-0.023077715384380627
1756047322.1709242,-0.02051352478611611
1756047322.172924,-0.0179493341878516
1756047322.1749241,-0.016667238888719342
1756047322.176924,-0.015385143589587084
1756047322.178924,-0.014103048290454827
1756047322.1809242,-0.012820952991322571
1756047322.182924,-0.012820952991322571
1756047322.1849241,-0.012820952991322571
1756047322.186924,-0.011538857692190313
1756047322.188924,-0.011538857692190313
1756047322.1909242,-0.007692571794793542
1756047322.192924,-0.005128381196529028
1756047322.194924,-0.001282095299132257
1756047322.196924,0.001282095299132257
1756047322.198924,0.002564190598264514
1756047322.2009242,0.005128381196529028
1756047322.202924,0.003846285897396771
1756047322.204924,0.002564190598264514
1756047322.2069242,-0.003846285897396771
1756047322.208924,-0.010256762393058056
1756047322.2109241,-0.02179562008524837
1756047322.212924,-0.033334477777438684
1756047322.214924,-0.04743752606789351
1756047322.2169242,-0.06154057435834834
1756047322.218924,-0.07307943205053866
1756047322.2209241,-0.08590038504186122
1756047322.222924,-0.0923108615375225
1756047322.224924,-0.0987213380331838
1756047322.2269242,-0.10000343333231605
1756047322.228924,-0.10128552863144831
1756047322.2309241,-0.09615714743491928
1756047322.232924,-0.09102876623839025
1756047322.234924,-0.08461828974272896
1756047322.2369242,-0.07820781324706769
1756047322.238924,-0.07436152734967091
1756047322.2409241,-0.07051524145227414
1756047322.242924,-0.06795105085400963
1756047322.244924,-0.06538686025574511
1756047322.2469242,-0.06410476495661285
1756047322.248924,-0.06410476495661285
1756047322.250924,-0.0628226696574806
1756047322.2529242,-0.06154057435834834
1756047322.254924,-0.057694288460951565
1756047322.2569242,-0.05513009786268705
1756047322.258924,-0.050001716666158026
1756047322.260924,-0.04615543076876125
1756047322.2629242,-0.04102704957223222
1756047322.264924,-0.03718076367483546
1756047322.2669241,-0.033334477777438684
1756047322.268924,-0.02948819188004191
1756047322.270924,-0.0269240012817774
1756047322.2729242,-0.024359810683512884
1756047322.274924,-0.02179562008524837
1756047322.2769241,-0.019231429486983857
1756047322.278924,-0.016667238888719342
1756047322.280924,-0.014103048290454827
1756047322.2829242,-0.011538857692190313
1756047322.284924,-0.010256762393058056
1756047322.2869241,-0.0089746670939258
1756047322.288924,-0.0089746670939258
1756047322.290924,-0.0089746670939258
1756047322.2929242,-0.010256762393058056
1756047322.294924,-0.011538857692190313
1756047322.296924,-0.014103048290454827
1756047322.298924,-0.015385143589587084
1756047322.300924,-0.016667238888719342
1756047322.3029242,-0.015385143589587084
1756047322.304924,-0.014103048290454827
1756047322.306924,-0.0089746670939258
1756047322.3089242,-0.003846285897396771
1756047322.310924,0.001282095299132257
1756047322.3129241,0.0064104764956612855
1756047322.314924,0.011538857692190313
1756047322.316924,0.0179493341878516
1756047322.3189242,0.02179562008524837
1756047322.320924,0.025641905982645142
1756047322.3229241,0.025641905982645142
1756047322.324924,0.0269240012817774
1756047322.326924,0.025641905982645142
1756047322.3289242,0.025641905982645142
1756047322.330924,0.023077715384380627
1756047322.3329241,0.02179562008524837
1756047322.334924,0.0179493341878516
1756047322.336924,0.015385143589587084
1756047322.3389242,0.011538857692190313
1756047322.340924,0.007692571794793542
1756047322.342924,0.003846285897396771
1756047322.344924,0.0
1756047322.346924,-0.003846285897396771
1756047322.3489242,-0.007692571794793542
1756047322.350924,-0.012820952991322571
1756047322.352924,-0.0179493341878516
1756047322.3549242,-0.023077715384380627
1756047322.356924,-0.02948819188004191
1756047322.3589242,-0.0358986683757032
1756047322.360924,-0.04230914487136448
1756047322.362924,-0.04871962136702577
1756047322.3649242,-0.05513009786268705
1756047322.366924,-0.06025847905921608
1756047322.3689241,-0.06666895555487737
1756047322.370924,-0.0717973367514064
1756047322.372924,-0.07692571794793543
1756047322.3749242,-0.08077200384533219
1756047322.376924,-0.08461828974272896
1756047322.3789241,-0.08718248034099348
1756047322.380924,-0.08974667093925799
1756047322.382924,-0.09102876623839025
1756047322.3849242,-0.09359295683665476
1756047322.386924,-0.09359295683665476
1756047322.3889241,-0.09487505213578702
1756047322.390924,-0.09487505213578702
1756047322.392924,-0.09487505213578702
1756047322.3949242,-0.09359295683665476
1756047322.396924,-0.0923108615375225
1756047322.398924,-0.09102876623839025
1756047322.4009242,-0.08974667093925799
1756047322.402924,-0.08846457564012573
1756047322.4049242,-0.08718248034099348
1756047322.406924,-0.08718248034099348
1756047322.408924,-0.08718248034099348
1756047322.4109242,-0.08846457564012573
1756047322.412924,-0.08974667093925799
1756047322.4149241,-0.09102876623839025
1756047322.416924,-0.09359295683665476
1756047322.418924,-0.09615714743491928
1756047322.4209242,-0.0987213380331838
1756047322.422924,-0.10000343333231605
1756047322.4249241,-0.10256762393058057
1756047322.426924,-0.10384971922971283
1756047322.428924,-0.10513181452884508
1756047322.4309242,-0.10384971922971283
1756047322.432924,-0.10384971922971283
1756047322.4349241,-0.10256762393058057
1756047322.436924,-0.10256762393058057
1756047322.438924,-0.10128552863144831
1756047322.4409242,-0.10000343333231605
1756047322.442924,-0.10000343333231605
1756047322.444924,-0.10000343333231605
1756047322.446924,-0.10128552863144831
1756047322.448924,-0.10384971922971283
1756047322.4509242,-0.10513181452884508
1756047322.452924,-0.1076960051271096
1756047322.454924,-0.10897810042624186
1756047322.4569242,-0.11154229102450636
1756047322.458924,-0.1102601957253741
1756047322.4609241,-0.1102601957253741
1756047322.462924,-0.10641390982797734
1756047322.464924,-0.10384971922971283
1756047322.4669242,-0.0987213380331838
1756047322.468924,-0.09359295683665476
1756047322.4709241,-0.08846457564012573
1756047322.472924,-0.08461828974272896
1756047322.474924,-0.0833361944435967
1756047322.4769242,-0.08205409914446445
1756047322.478924,-0.08461828974272896
1756047322.4809241,-0.08718248034099348
1756047322.482924,-0.0923108615375225
1756047322.484924,-0.0987213380331838
1756047322.4869242,-0.10384971922971283
1756047322.488924,-0.1102601957253741
1756047322.4909241,-0.11410648162277087
1756047322.492924,-0.1192348628192999
1756047322.494924,-0.12051695811843216
1756047322.4969242,-0.12308114871669668
1756047322.498924,-0.12308114871669668
1756047322.500924,-0.12436324401582893
1756047322.5029242,-0.1256453393149612
1756047322.504924,-0.12692743461409345
1756047322.5069242,-0.1282095299132257
1756047322.508924,-0.13077372051149022
1756047322.510924,-0.134620006408887
1756047322.5129242,-0.13846629230628377
1756047322.514924,-0.14231257820368054
1756047322.5169241,-0.1461588641010773
1756047322.518924,-0.14744095940020957
1756047322.520924,-0.15000514999847409
1756047322.5229242,-0.14872305469934183
1756047322.524924,-0.14744095940020957
1756047322.5269241,-0.1435946735028128
1756047322.528924,-0.14103048290454828
1756047322.530924,-0.13590210170801925
1756047322.5329242,-0.13205581581062248
1756047322.534924,-0.12692743461409345
1756047322.5369241,-0.12308114871669668
1756047322.538924,-0.12051695811843216
1756047322.540924,-0.11795276752016765
1756047322.5429242,-0.11667067222103539
1756047322.544924,-0.11538857692190313
1756047322.546924,-0.11410648162277087
1756047322.548924,-0.11282438632363861
1756047322.550924,-0.1102601957253741
1756047322.5529242,-0.10897810042624186
1756047322.554924,-0.10384971922971283
1756047322.556924,-0.10000343333231605
1756047322.5589242,-0.09359295683665476
1756047322.560924,-0.08846457564012573
1756047322.5629241,-0.08205409914446445
1756047322.564924,-0.07692571794793543
1756047322.566924,-0.07307943205053866
1756047322.5689242,-0.06923314615314188
1756047322.570924,-0.06923314615314188
1756047322.5729241,-0.06923314615314188
1756047322.574924,-0.0717973367514064
1756047322.576924,-0.07436152734967091
1756047322.5789242,-0.07820781324706769
1756047322.580924,-0.08205409914446445
1756047322.5829241,-0.0833361944435967
1756047322.584924,-0.08590038504186122
1756047322.586924,-0.08590038504186122
1756047322.5889242,-0.08718248034099348
1756047322.590924,-0.08461828974272896
1756047322.592924,-0.08205409914446445
1756047322.594924,-0.07948990854619993
1756047322.596924,-0.07820781324706769
1756047322.5989242,-0.07692571794793543
1756047322.600924,-0.07564362264880317
1756047322.602924,-0.07564362264880317
1756047322.6049242,-0.07564362264880317
1756047322.606924,-0.07564362264880317
1756047322.6089242,-0.07564362264880317
1756047322.610924,-0.07436152734967091
1756047322.612924,-0.07436152734967091
1756047322.6149242,-0.0717973367514064
1756047322.616924,-0.06923314615314188
1756047322.6189241,-0.06538686025574511
1756047322.620924,-0.06154057435834834
1756047322.622924,-0.05641219316181931
1756047322.6249242,-0.051283811965290284
1756047322.626924,-0.04615543076876125
1756047322.6289241,-0.04102704957223222
1756047322.630924,-0.03718076367483546
1756047322.632924,-0.033334477777438684
1756047322.6349242,-0.03077028717917417
